0.758368
0.746688
0.716192
0.628919
0.457944
0.285671
0.126699
0.015095
-0.055956
-0.068608
-0.006318
0.078359
0.152654
0.245766
0.3405
0.422905
0.477085
0.490712
0.44594
0.384947
0.297026
0.131241
-0.029352
-0.181511
-0.282409
-0.325883
-0.297657
-0.240882
-0.156205
-0.066337
0.030992
0.141623
0.230193
0.282427
0.29735
0.269449
0.216567
0.092958
-0.078341
-0.234393
-0.356704
-0.431972
-0.471877
-0.439109
-0.357028
-0.270729
-0.166262
-0.070231
0.042347
0.132215
0.184773
0.189639
0.171146
0.107882
-0.03065
-0.175671
-0.299928
-0.382983
-0.419319
-0.399529
-0.309012
-0.202599
-0.088399
0.04624
0.187044
0.313248
0.409279
0.469624
0.474166
0.459566
0.407333
0.2688
0.145841
0.044618
-0.012482
-0.019944
0.04332
0.139028
0.258419
0.387867
0.521208
0.657469
0.775887
0.858941
0.902415
0.900469
0.872568
0.771994
0.626648
0.501742
0.406684
0.349908
0.347637
0.425501
0.526723
0.625026
0.752528
0.868674
0.998123
1.096425
1.160338
1.17364
1.166827
1.106807
0.961137
0.818063
0.685371
0.602965
0.557544
0.567926
0.643194
0.729818
0.832338
0.951729
1.078906
1.197324
1.27097
1.307306
1.293355
1.258641
1.184995
1.032837
0.894629
0.777509
0.698672
0.663309
0.698348
0.770372
0.870945
0.979954
1.086368
1.202515
1.303413
1.366677
1.393605
1.378681
1.344291
1.234633
1.084097
0.935507
0.823578
0.750257
0.734035
0.795677
0.885869
0.975088
1.08507
1.196026
1.314119
1.401067
1.458491
1.465304
1.452327
1.382574
1.22782
1.078906
0.950107
0.857968
0.818063
0.821307
0.897224
0.987416
1.091883
1.208679
1.329043
1.445514
1.528893
1.573989
1.551928
1.513645
1.434483
1.289787
1.158392
1.055871
0.991958
0.97671
1.031215
1.109727
1.228145
1.362784
1.501316
1.646013
1.783572
1.876035
1.94157
1.955521
1.942219
1.846836
1.710899
1.586317
1.493205
1.440972
1.428968
1.499045
1.581451
1.658017
1.766053
1.865004
1.973689
2.053175
2.100542
2.102488
2.083671
2.009376
1.843916
1.67586
1.532137
1.425724
1.368299
1.361162
1.415666
1.491908
1.581775
1.675536
1.780652
1.874413
1.934433
1.956494
1.916264
1.862733
1.766701
1.598321
1.443892
1.313146
1.235931
1.19927
1.234309
1.294004
1.382899
1.480877
1.578855
1.678456
1.766701
1.812771
1.825424
1.805309
1.747884
1.617787
1.454274
1.304386
1.179804
1.097074
1.068849
1.125949
1.207705
1.285245
1.39036
1.492232
1.595077
1.672941
1.715117
1.704735
1.675536
1.591508
1.424426
1.263832
1.11654
1.010775
0.954649
0.954649
1.012722
1.094154
1.195701
1.305684
1.418586
1.520133
1.57334
1.606108
1.575287
1.529866
1.440323
1.277458
1.134384
1.021482
0.950431
0.920908
0.969573
1.046787
1.151254
1.261561
1.372517
1.48769
1.585668
1.644391
1.663532
1.641795
1.587615
1.464331
1.308279
1.1678
1.058791
0.990336
0.971844
1.041921
1.133086
1.223927
1.340722
1.458816
1.587939
1.673914
1.72485
1.719983
1.702139
1.629142
1.471144
1.320608
1.194728
1.098048
1.060413
1.071769
1.137304
1.2249
1.32807
1.437403
1.555821
1.659963
1.724525
1.755671
1.729716
1.680078
1.589886
1.429617
1.284596
1.166503
1.092857
1.062036
1.103238
1.168774
1.261886
1.371219
1.471144
1.583397
1.675212
1.725174
1.74172
1.719659
1.675536
1.550305
1.397174
1.249233
1.136655
1.069173
1.046787
1.106807
1.188888
1.271294
1.383872
1.492881
1.59313
1.678456
1.720632
1.745289
1.755671
1.69046
1.508129
1.324501
1.152876
1.020508
0.971195
0.966004
1.030566
1.113945
1.223278
1.326447
1.447785
1.546737
1.607405
1.633684
1.598321
1.540248
1.445189
1.280703
1.141521
1.032837
0.951729
0.926748
0.965355
1.031863
1.122704
1.230091
1.335532
1.442918
1.535057
1.580153
1.589886
1.555172
1.498721
1.357593
1.201866
1.061711
0.943294
0.862835
0.841422
0.898847
0.982225
1.063009
1.169747
1.279729
1.383223
1.462709
1.500343
1.487041
1.452651
1.368948
1.200568
1.049058
0.918312
0.819685
0.771669
0.783349
0.853426
0.92837
1.023753
1.128544
1.243069
1.340074
1.400093
1.421182
1.380303
1.324825
1.220358
1.052303
0.902091
0.777834
0.688615
0.663634
0.704512
0.77394
0.863808
0.97087
1.070471
1.174938
1.274214
1.32223
1.339425
1.303737
1.249882
1.110376
0.958542
0.819036
0.704836
0.628919
0.612698
0.677909
0.763559
0.852453
0.959515
1.076311
1.185644
1.268699
1.30763
1.296924
1.265454
1.190186
1.024726
0.878083
0.75123
0.653901
0.609454
0.624053
0.701592
0.7827
0.884247
0.993581
1.106483
1.201541
1.26221
1.295951
1.263832
1.215816
1.121082
0.960164
0.815468
0.691859
0.603289
0.572793
0.617564
0.694779
0.796002
0.912473
1.01986
1.13114
1.222629
1.272592
1.279729
1.239824
1.184346
1.033161
0.875487
0.733711
0.613022
0.546514
0.531266
0.596152
0.680828
0.761288
0.866079
0.97963
1.087341
1.176236
1.209328
1.194728
1.154823
1.072417
0.896251
0.74539
0.606858
0.50596
0.4547
0.46573
0.533537
0.617564
0.713272
0.82001
0.932263
1.026673
1.082799
1.109078
1.075986
1.01986
0.91085
0.746688
0.600694
0.47741
0.394355
0.365481
0.403764
0.476112
0.565006
0.675962
0.781402
0.895602
0.987741
1.037054
1.044841
1.006882
0.951404
0.810277
0.658118
0.516342
0.407982
0.331091
0.319087
0.377161
0.465081
0.556247
0.672069
0.792757
0.901766
0.997798
1.038028
1.030241
0.996176
0.92253
0.755123
0.622431
0.492983
0.402466
0.365805
0.392733
0.480654
0.577984
0.691859
0.807357
0.941347
1.043219
1.113296
1.146388
1.121407
1.079555
0.975412
0.818063
0.680828
0.569873
0.487792
0.467677
0.51472
0.598747
0.695428
0.80833
0.918312
1.032512
1.126598
1.176884
1.179155
1.144117
1.083773
0.937129
0.78562
0.649034
0.53743
0.473192
0.460215
0.521857
0.604911
0.693806
0.796651
0.904362
1.001367
1.081177
1.117513
1.104536
1.06236
0.978332
0.798273
0.64871
0.510177
0.411875
0.373592
0.392409
0.465081
0.55138
0.650656
0.75415
0.879056
0.971519
1.026348
1.043867
1.007531
0.948809
0.841422
0.676611
0.531266
0.426799
0.351855
0.342771
0.391436
0.476761
0.567602
0.688615
0.792433
0.91085
1.004611
1.061062
1.073391
1.040623
0.979954
0.830391
0.675638
0.526723
0.415443
0.345691
0.33758
0.403439
0.490387
0.584797
0.706134
0.830067
0.941023
1.01986
1.059765
1.038677
0.995203
0.917988
0.74831
0.604911
0.476437
0.386569
0.349584
0.378458
0.449509
0.558518
0.66266
0.776536
0.900793
1.001691
1.068849
1.098696
1.075337
1.032837
0.926423
0.769074
0.63119
0.520235
0.443669
0.427772
0.48617
0.578308
0.678557
0.809628
0.927072
1.053276
1.155796
1.20803
1.218087
1.197648
1.131464
0.992607
0.839151
0.711001
0.604263
0.542945
0.543269
0.621133
0.715218
0.806384
0.923828
1.040623
1.157094
1.247935
1.288489
1.274863
1.243717
1.167476
1.000069
0.854399
0.729493
0.656821
0.62016
0.650656
0.717814
0.823578
0.931614
1.041921
1.166503
1.264481
1.328394
1.352726
1.32223
1.269347
1.161961
0.995527
0.858293
0.738902
0.65974
0.644168
0.69997
0.783024
0.87419
0.987741
1.100643
1.217763
1.305359
1.360188
1.357917
1.342669
1.277458
1.130166
0.977683
0.839476
0.727222
0.664607
0.657145
0.725924
0.822281
0.916366
1.036081
1.15385
1.267076
1.35078
1.393929
1.372192
1.331963
1.250206
1.079879
0.937778
0.801517
0.712298
0.674989
0.700943
0.766154
0.86543
0.967626
1.076311
1.194079
1.289787
1.346887
1.375112
1.346562
1.294653
1.179155
1.014993
0.873216
0.753177
0.670771
0.652603
0.709703
0.791135
0.877434
0.991958
1.099021
1.211599
1.305359
1.358566
1.355971
1.330341
1.258641
1.101941
0.943294
0.805735
0.695103
0.637679
0.638004
0.711649
0.804112
0.892682
1.003638
1.113296
1.225549
1.312497
1.351753
1.329367
1.280054
1.200892
1.022131
0.880029
0.742146
0.649034
0.607831
0.63703
0.70289
0.805086
0.907606
1.020508
1.139575
1.22198
1.283947
1.2966
1.268699
1.211274
1.091559
0.924477
0.779131
0.662985
0.583175
0.562735
0.615618
0.702565
0.78854
0.904037
1.010775
1.12238
1.21095
1.255721
1.25053
1.220358
1.14217
0.984496
0.826498
0.688939
0.579606
0.522506
0.514395
0.581877
0.667527
0.756097
0.869323
0.981577
1.077933
1.156121
1.190835
1.175587
1.134059
1.049058
0.867377
0.719111
0.586094
0.491036
0.449509
0.480654
0.549434
0.656821
0.765505
0.875163
0.990985
1.081177
1.132437
1.154823
1.113296
1.060089
0.943294
0.776536
0.635084
0.515044
0.441074
0.422257
0.479356
0.561438
0.659092
0.770696
0.890736
1.005909
1.09675
1.145739
1.142819
1.108105
1.031215
0.875487
0.719436
0.585121
0.472219
0.418363
0.426474
0.504662
0.599721
0.689264
0.804112
0.915717
1.02505
1.105834
1.147361
1.127571
1.089288
1.000394
0.826498
0.681153
0.551056
0.469948
0.429718
0.463784
0.533537
0.634435
0.737928
0.847911
0.962111
1.057169
1.108429
1.125949
1.091234
1.035757
0.91085
0.743768
0.598747
0.474814
0.398249
0.373267
0.433287
0.523479
0.626324
0.75123
0.866403
0.981577
1.06236
1.114918
1.111025
1.079879
1.004611
0.842395
0.686344
0.550407
0.435883
0.376512
0.376836
0.444967
0.533212
0.628271
0.744093
0.858293
0.965679
1.040623
1.072742
1.050032
1.007207
0.917339
0.744417
0.59745
0.469624
0.379756
0.338229
0.370023
0.435234
0.537754
0.645141
0.758368
0.87711
0.971844
1.022455
1.037054
1.002016
0.944591
0.814494
0.64871
0.505635
0.387218
0.31779
0.293782
0.353801
0.438478
0.530941
0.645141
0.751555
0.866079
0.950431
1.007531
1.003962
0.978008
0.900793
0.740848
0.58577
0.451455
0.340175
0.286644
0.293133
0.36321
0.453402
0.543918
0.660389
0.771994
0.881652
0.954324
0.990985
0.963084
0.924477
0.838178
0.675638
0.531266
0.403439
0.328171
0.287617
0.324927
0.398897
0.502716
0.618213
0.733711
0.853102
0.945889
0.995527
1.013371
0.982225
0.924152
0.797948
0.636706
0.492334
0.376512
0.307083
0.291186
0.359966
0.451455
0.543269
0.655198
0.762585
0.878732
0.966004
1.020184
1.021482
0.996176
0.922854
0.765181
0.610751
0.479681
0.370347
0.318438
0.3259
0.39468
0.484223
0.58577
0.703539
0.827147
0.932912
1.011424
1.050356
1.025699
0.97963
0.881976
0.707432
0.567926
0.443345
0.35737
0.325576
0.363859
0.448535
0.552354
0.662985
0.778482
0.894629
0.990661
1.039325
1.055871
1.02505
0.972168
0.840449
0.684722
0.538403
0.424203
0.358668
0.340824
0.41447
0.50888
0.60848
0.719436
0.82293
0.930965
1.010451
1.058467
1.059116
1.036406
0.963084
0.812548
0.676611
0.551705
0.441074
0.386569
0.393707
0.468001
0.560789
0.663309
0.779456
0.897224
1.003314
1.080204
1.120109
1.097723
1.051978
0.957244
0.78854
0.643194
0.518288
0.434585
0.401817
0.44594
0.519586
0.620484
0.735009
0.846937
0.968599
1.064956
1.116865
1.128869
1.101616
1.050681
0.919935
0.761612
0.624377
0.513422
0.449833
0.435558
0.508555
0.603938
0.701268
0.820334
0.938103
1.055871
1.15093
1.20219
1.195701
1.1678
1.095452
0.936805
0.791784
0.67142
0.569224
0.52867
0.549109
0.63119
0.727222
0.840773
0.968599
1.109727
1.235607
1.329043
1.387765
1.389712
1.372517
1.302115
1.14801
1.003962
0.886518
0.797299
0.767127
0.801517
0.867052
0.95108
1.060089
1.158716
1.26805
1.352078
1.389063
1.395227
1.359215
1.295951
1.154174
0.982874
0.83104
0.703214
0.629244
0.601992
0.660714
0.747013
0.838178
0.949458
1.058142
1.166503
1.248908
1.291733
1.27908
1.240797
1.156445
0.994229
0.832662
0.697699
0.583499
0.529643
0.539376
0.611076
0.697699
0.797624
0.900469
1.016291
1.122704
1.191159
1.237229
1.21679
1.169098
1.065604
0.885545
0.732413
0.611725
0.531914
0.503364
0.543269
0.613671
0.709378
0.819361
0.924152
1.039001
1.129517
1.173965
1.183049
1.14801
1.088639
0.95692
0.803788
0.669798
0.557544
0.487143
0.466704
0.529643
0.62308
0.718463
0.837205
0.952378
1.05944
1.145415
1.188888
1.17656
1.144766
1.069822
0.906957
0.753826
0.617889
0.51472
0.462486
0.473841
0.550407
0.636706
0.740524
0.850182
0.966977
1.069822
1.144766
1.178831
1.160014
1.104212
1.002016
0.834609
0.684722
0.562087
0.475788
0.45178
0.498822
0.573117
0.67142
0.792109
0.898198
1.022779
1.111998
1.15969
1.165854
1.132437
1.080204
0.9394
0.784971
0.644817
0.541972
0.47449
0.467677
0.537105
0.632164
0.721058
0.837853
0.952702
1.068524
1.156121
1.197972
1.18532
1.146712
1.075662
0.905011
0.754799
0.622755
0.516342
0.475788
0.496227
0.578957
0.670447
0.783998
0.899171
1.020833
1.123029
1.198621
1.234958
1.206408
1.159041
1.055223
0.886843
0.739226
0.622431
0.543594
0.521857
0.57701
0.662336
0.755772
0.874514
0.984496
1.105509
1.195377
1.240473
1.251504
1.212896
1.16488
1.018237
0.862835
0.716516
0.613022
0.547487
0.53159
0.593232
0.681802
0.775238
0.88814
1.00234
1.115242
1.209328
1.247935
1.239175
1.196999
1.121731
0.956595
0.805735
0.67142
0.564033
0.515044
0.529643
0.606858
0.692508
0.79438
0.903713
1.022779
1.124975
1.195701
1.228794
1.202839
1.158392
1.046463
0.877434
0.727547
0.60556
0.516666
0.487792
0.534185
0.6114
0.703863
0.824552
0.931939
1.049383
1.146388
1.19927
1.214519
1.177209
1.124975
0.983523
0.825849
0.684073
0.576362
0.512448
0.503364
0.567277
0.655847
0.749932
0.858941
0.977035
1.080204
1.169423
1.207057
1.19343
1.156121
1.078582
0.907606
0.764532
0.632813
0.529319
0.481627
0.493956
0.565655
0.652927
0.750581
0.856995
0.974764
1.076311
1.147361
1.184022
1.160987
1.118487
1.004936
0.836556
0.686019
0.56014
0.47449
0.449833
0.496876
0.575388
0.667527
0.77978
0.884247
0.9965
1.080853
1.125624
1.126273
1.085719
1.023104
0.87711
0.720085
0.576037
0.470921
0.407333
0.397924
0.46573
0.554625
0.649683
0.770696
0.886194
0.995527
1.075662
1.112323
1.09383
1.048734
0.966977
0.794704
0.647088
0.523155
0.426474
0.375863
0.398897
0.466055
0.559491
0.656496
0.760963
0.880354
0.983848
1.048085
1.075986
1.049383
0.997798
0.879056
0.70581
0.565006
0.443669
0.368725
0.353801
0.408955
0.494929
0.584148
0.703214
0.809952
0.926099
1.010127
1.058791
1.060738
1.025375
0.962435
0.814494
0.66266
0.520235
0.417714
0.357046
0.34634
0.413821
0.499471
0.596476
0.712298
0.828445
0.940049
1.026348
1.056845
1.038677
0.994878
0.913122
0.748635
0.606534
0.485521
0.392084
0.34634
0.369699
0.4401
0.539701
0.63995
0.748959
0.872892
0.975737
1.045814
1.078582
1.050356
1.010775
0.896575
0.727547
0.583499
0.46281
0.382027
0.364832
0.41739
0.504662
0.594205
0.714894
0.821307
0.941996
1.020833
1.069822
1.070795
1.042245
0.971519
0.823903
0.671744
0.528995
0.416741
0.352828
0.3405
0.406359
0.499147
0.595827
0.710676
0.825201
0.938427
1.022455
1.061711
1.04257
1.00526
0.931939
0.760639
0.615942
0.485845
0.391111
0.344393
0.371645
0.442371
0.543918
0.650332
0.759665
0.880678
0.983523
1.04841
1.084746
1.059116
1.01986
0.897224
0.726898
0.579281
0.461837
0.375863
0.358019
0.410253
0.502716
0.598747
0.717489
0.82812
0.943943
1.027646
1.075986
1.071769
1.046463
0.976061
0.830391
0.680828
0.535159
0.433936
0.377161
0.372618
0.449184
0.542296
0.639626
0.761612
0.876785
0.987741
1.071769
1.11362
1.096425
1.052627
0.970546
0.801517
0.651954
0.520559
0.424852
0.379107
0.405386
0.469948
0.572793
0.674664
0.786593
0.912797
1.018886
1.086044
1.121407
1.094479
1.050681
0.927721
0.758692
0.616915
0.495254
0.409928
0.389813
0.446264
0.532888
0.626973
0.749284
0.86543
0.986119
1.066902
1.114594
1.111025
1.087017
1.013695
0.866728
0.709703
0.572793
0.469624
0.416092
0.411226
0.477734
0.570197
0.666229
0.789837
0.904037
1.013046
1.094154
1.134708
1.105834
1.060413
0.971519
0.796975
0.648061
0.5118
0.407657
0.352828
0.384622
0.445616
0.546189
0.638977
0.740524
0.852453
0.947511
0.998123
1.015317
0.977035
0.914744
0.786918
0.601343
0.442696
0.302866
0.206834
0.168551
0.207807
0.281778
0.358668
0.462486
0.5543
0.664282
0.739875
0.775563
0.75999
0.726249
0.64579
0.49136
0.332065
0.184448
0.073168
0.015095
0.000495
0.062137
0.146814
0.238953
0.353477
0.464108
0.572468
0.66558
0.714894
0.693806
0.647088
0.561762
0.393058
0.251606
0.123455
0.029694
-0.008913
0.027748
0.104314
0.215269
0.322332
0.439127
0.5689
0.686344
0.749932
0.783998
0.756745
0.712947
0.598423
0.430692
0.29735
0.179582
0.111776
0.093607
0.156223
0.240575
0.334984
0.448211
0.558518
0.675313
0.758368
0.808006
0.798273
0.771669
0.695103
0.544892
0.394355
0.264907
0.16044
0.108531
0.10626
0.178933
0.268476
0.367752
0.490387
0.605236
0.713596
0.791135
0.826823
0.794704
0.750257
0.664607
0.492334
0.344393
0.213971
0.115344
0.069275
0.098798
0.164009
0.259716
0.363859
0.469299
0.587392
0.690237
0.743768
0.766154
0.735333
0.687966
0.554949
0.381054
0.234411
0.116318
0.045267
0.027748
0.095554
0.187368
0.287942
0.40863
0.522506
0.646114
0.736306
0.784647
0.785944
0.764856
0.704188
0.556896
0.412199
0.290213
0.195154
0.153627
0.163036
0.247063
0.350233
0.468975
0.599396
0.735009
0.852777
0.941996
0.989687
0.97379
0.940698
0.864457
0.708405
0.572144
0.452429
0.368401
0.33758
0.379107
0.462486
0.572144
0.686344
0.806708
0.92837
1.037379
1.102265
1.138926
1.117189
1.077933
0.950107
0.788215
0.650007
0.536132
0.468326
0.457295
0.523155
0.612373
0.709054
0.824552
0.949458
1.071769
1.162609
1.216465
1.219061
1.195377
1.127895
0.973141
0.818063
0.686993
0.589014
0.548136
0.552354
0.627297
0.715543
0.815468
0.930641
1.042894
1.15385
1.23658
1.282
1.256046
1.216141
1.135357
0.96795
0.827147
0.701917
0.60264
0.567602
0.607831
0.682126
0.7827
0.89398
1.012073
1.127571
1.232362
1.289462
1.315092
1.291084
1.243393
1.107456
0.940049
0.79438
0.677909
0.60556
0.589988
0.652603
0.744093
0.841747
0.958542
1.069822
1.183373
1.26513
1.31055
1.303088
1.269996
1.195701
1.037379
0.883598
0.746688
0.647412
0.599396
0.607831
0.679855
0.766478
0.867701
0.977035
1.09675
1.214194
1.291409
1.328394
1.299195
1.250855
1.159041
0.986443
0.840449
0.710676
0.612049
0.569224
0.605885
0.674989
0.774589
0.880354
0.999096
1.112323
1.219385
1.266752
1.285893
1.251828
1.204137
1.066253
0.905335
0.763234
0.653252
0.584797
0.559491
0.623729
0.712623
0.808655
0.917988
1.025375
1.128544
1.206083
1.249882
1.242744
1.215167
1.140873
0.988714
0.840773
0.703863
0.601667
0.550731
0.55722
0.629568
0.716516
0.819361
0.930316
1.050356
1.160014
1.232362
1.271943
1.24242
1.19343
1.102914
0.932912
0.786918
0.661363
0.566629
0.528021
0.570197
0.643843
0.750581
0.858293
0.977683
1.092532
1.188888
1.243717
1.26221
1.233336
1.187915
1.047761
0.882301
0.738253
0.624702
0.550083
0.53743
0.602965
0.699321
0.783998
0.898198
1.00526
1.111349
1.191808
1.242744
1.235931
1.204137
1.129517
0.964706
0.813197
0.670447
0.572144
0.521208
0.530292
0.602316
0.689913
0.795028
0.904362
1.026024
1.129193
1.19927
1.229767
1.201217
1.152552
1.061711
0.896251
0.747013
0.621458
0.526723
0.482925
0.523804
0.59453
0.692508
0.801193
0.905984
1.018562
1.115242
1.164556
1.184022
1.161636
1.112971
0.975737
0.814494
0.669473
0.558193
0.483574
0.47157
0.532239
0.62016
0.711001
0.825525
0.936481
1.043219
1.122704
1.15677
1.142819
1.107132
1.026997
0.858617
0.708081
0.575713
0.48033
0.439776
0.447238
0.51991
0.6114
0.723978
0.832987
0.950431
1.054574
1.128869
1.161636
1.128869
1.078906
0.992607
0.82293
0.678557
0.552029
0.458917
0.421932
0.463459
0.535159
0.633786
0.746688
0.855697
0.970221
1.066578
1.123029
1.139899
1.11654
1.063658
0.923828
0.764856
0.616915
0.502391
0.431665
0.418363
0.483574
0.573117
0.662011
0.773291
0.88814
0.995527
1.080528
1.130166
1.125624
1.095128
1.018886
0.855373
0.70289
0.56598
0.462486
0.418039
0.427123
0.499796
0.586094
0.69997
0.810601
0.932587
1.036081
1.111025
1.142495
1.112647
1.058791
0.969248
0.803464
0.649359
0.523479
0.433936
0.405386
0.452753
0.528021
0.624377
0.73436
0.84272
0.958218
1.052952
1.102265
1.124975
1.097723
1.045814
0.90274
0.737604
0.589663
0.481627
0.41155
0.406359
0.467028
0.565331
0.650332
0.763883
0.879056
0.991958
1.07404
1.11362
1.099021
1.065604
0.989363
0.824227
0.675313
0.538079
0.437505
0.389813
0.395653
0.467353
0.554949
0.668825
0.787891
0.913446
1.016615
1.090586
1.119136
1.088315
1.031863
0.935832
0.770047
0.630866
0.506284
0.419337
0.388516
0.436532
0.51472
0.608156
0.717165
0.823903
0.941671
1.03673
1.088315
1.101616
1.074364
1.014669
0.878732
0.71976
0.57701
0.474814
0.414146
0.406359
0.46573
0.559491
0.648385
0.766478
0.874839
0.98839
1.063009
1.099021
1.091883
1.053276
0.976061
0.809952
0.66266
0.524777
0.430367
0.38884
0.401817
0.472543
0.561113
0.6685
0.781078
0.910526
1.014993
1.091559
1.122055
1.093181
1.038352
0.941996
0.770696
0.629893
0.504338
0.412848
0.380729
0.42615
0.503364
0.596801
0.706134
0.810601
0.928694
1.033161
1.098372
1.116216
1.092532
1.041272
0.896251
0.732089
0.586419
0.479681
0.412524
0.400195
0.466055
0.554625
0.643843
0.76583
0.877758
0.985794
1.064631
1.098696
1.080853
1.03965
0.963733
0.795028
0.650981
0.522181
0.426799
0.380405
0.395004
0.469624
0.552354
0.662985
0.774589
0.894629
0.998771
1.069498
1.101616
1.071769
1.014669
0.915717
0.740848
0.594205
0.472219
0.383649
0.355424
0.401168
0.47741
0.571495
0.688615
0.792433
0.911499
0.998447
1.048734
1.063333
1.029592
0.976061
0.827796
0.670771
0.525101
0.418039
0.350233
0.334984
0.405062
0.497849
0.586743
0.704188
0.819036
0.923503
1.004936
1.032837
1.016291
0.969573
0.893331
0.72268
0.577335
0.450482
0.359641
0.320061
0.337904
0.417714
0.509529
0.620484
0.731764
0.856346
0.955622
1.02505
1.056845
1.024726
0.965355
0.857644
0.684073
0.535483
0.410253
0.330118
0.315843
0.377809
0.465406
0.563384
0.682775
0.791135
0.907282
0.999096
1.055871
1.067227
1.035757
0.972817
0.823254
0.663309
0.519586
0.414146
0.35153
0.345042
0.413497
0.509529
0.605885
0.729169
0.849857
0.961786
1.047436
1.08799
1.065604
1.022131
0.942969
0.768425
0.61724
0.486818
0.392409
0.345042
0.370672
0.450806
0.552354
0.674664
0.788864
0.914095
1.01986
1.080853
1.114269
1.079555
1.018562
0.906957
0.733386
0.586419
0.461837
0.384622
0.371645
0.432314
0.516666
0.620484
0.728195
0.83688
0.955298
1.042894
1.098696
1.106158
1.085395
1.023753
0.865106
0.702241
0.561762
0.451131
0.392409
0.382027
0.456322
0.555273
0.660714
0.781402
0.898847
1.010127
1.086692
1.118487
1.094479
1.046463
0.967626
0.796651
0.649034
0.512124
0.420959
0.380729
0.409928
0.492334
0.59453
0.698997
0.809303
0.923828
1.019535
1.084421
1.104536
1.074688
1.019211
0.912797
0.739551
0.592908
0.46865
0.378783
0.358992
0.421283
0.5118
0.614969
0.735333
0.847586
0.965031
1.050032
1.106807
1.106483
1.075013
1.009802
0.852777
0.685695
0.544567
0.442047
0.385596
0.387867
0.464433
0.564682
0.659416
0.780105
0.892033
1.006558
1.084097
1.127895
1.099994
1.051329
0.974764
0.808006
0.669473
0.541323
0.451455
0.41447
0.451455
0.527372
0.638977
0.740848
0.860888
0.982874
1.094154
1.162285
1.194728
1.161636
1.111674
1.00526
0.845315
0.712947
0.613022
0.556896
0.562087
0.645141
0.746688
0.854075
0.980279
1.091883
1.205759
1.293031
1.341371
1.341047
1.313795
1.248584
1.095452
0.932263
0.788864
0.684073
0.629893
0.623404
0.699321
0.794055
0.889438
1.001042
1.103563
1.19927
1.265779
1.287516
1.246637
1.188888
1.093505
0.911499
0.755448
0.614969
0.523155
0.474814
0.50304
0.567602
0.67142
0.775238
0.882301
0.991634
1.090261
1.141846
1.159041
1.115891
1.0536
0.930965
0.747013
0.592259
0.460539
0.363534
0.334336
0.388191
0.468975
0.562087
0.671096
0.771345
0.879705
0.963408
1.010775
1.013371
0.983199
0.900469
0.738253
0.572793
0.436532
0.327847
0.28048
0.2834
0.365805
0.467353
0.567277
0.684722
0.805735
0.917339
0.99942
1.032837
1.00526
0.960813
0.874514
0.702565
0.556571
0.433612
0.348286
0.317465
0.353477
0.436856
0.559167
0.675962
0.793406
0.915068
1.021806
1.083124
1.10778
1.073715
1.021482
0.900144
0.736631
0.593232
0.471246
0.393707
0.375863
0.44886
0.54035
0.648061
0.767776
0.880678
0.997798
1.086692
1.134384
1.138926
1.123353
1.043543
0.884572
0.723978
0.589663
0.485196
0.435558
0.442696
0.527048
0.628595
0.727547
0.844342
0.958542
1.068849
1.146712
1.182075
1.150281
1.102914
1.013046
0.837529
0.686993
0.556571
0.466055
0.428745
0.46281
0.535808
0.646114
0.755448
0.872243
0.987741
1.088315
1.146712
1.165205
1.123029
1.066253
0.941996
0.764532
0.618862
0.494605
0.417066
0.40052
0.470921
0.565655
0.664607
0.782051
0.899171
1.010451
1.099994
1.148983
1.149632
1.125949
1.046138
0.876785
0.707756
0.570197
0.463459
0.421283
0.419012
0.504662
0.607507
0.713272
0.824876
0.932912
1.038352
1.10778
1.133735
1.098372
1.051978
0.964057
0.800868
0.657145
0.534834
0.443993
0.409279
0.44886
0.523155
0.630866
0.741497
0.858941
0.978332
1.080853
1.141521
1.164232
1.123029
1.066253
0.938752
0.764856
0.622431
0.501093
0.42323
0.404088
0.473517
0.5689
0.664282
0.778158
0.88814
1.000394
1.089612
1.131788
1.132437
1.106807
1.027646
0.86543
0.69705
0.560464
0.450158
0.395329
0.3976
0.480979
0.576686
0.682775
0.801517
0.920908
1.03089
1.101616
1.137628
1.103238
1.049707
0.958218
0.783024
0.628919
0.50012
0.407333
0.372294
0.413497
0.494605
0.599072
0.704836
0.817739
0.931614
1.026024
1.08215
1.10259
1.07112
1.023428
0.89106
0.723005
0.580904
0.462486
0.37489
0.353477
0.410901
0.508555
0.610102
0.73144
0.846613
0.959191
1.047112
1.09091
1.089612
1.054249
0.97379
0.804437
0.647412
0.5118
0.412524
0.365481
0.373916
0.456971
0.557544
0.664931
0.77978
0.893656
0.995852
1.069498
1.097399
1.067551
1.015317
0.920259
0.746039
0.599396
0.468326
0.373592
0.344069
0.382676
0.462486
0.573117
0.693481
0.810926
0.930316
1.033161
1.08215
1.09967
1.057818
1.009802
0.879705
0.713921
0.570522
0.451455
0.377809
0.358992
0.422581
0.514395
0.616267
0.733062
0.844018
0.952053
1.040299
1.087017
1.080853
1.054574
0.97379
0.806708
0.649359
0.511151
0.405711
0.356721
0.365805
0.450158
0.543269
0.647088
0.76291
0.880029
0.980279
1.050681
1.082475
1.048734
0.997149
0.904037
0.735982
0.587717
0.463459
0.383
0.349259
0.389813
0.468326
0.569224
0.680828
0.787566
0.905335
1.00234
1.056845
1.075013
1.035432
0.983523
0.847262
0.689588
0.545541
0.435558
0.361588
0.346664
0.409279
0.501418
0.601343
0.724302
0.843369
0.955298
1.047761
1.08799
1.08799
1.055223
0.980928
0.807032
0.655523
0.520235
0.419337
0.371645
0.381378
0.459891
0.551056
0.659416
0.770047
0.894304
0.99131
1.063658
1.089937
1.05944
1.005585
0.91377
0.747013
0.599072
0.473517
0.389813
0.36029
0.402466
0.483899
0.591285
0.713596
0.82001
0.936481
1.030241
1.086044
1.104861
1.070795
1.020833
0.879705
0.719111
0.575064
0.466055
0.396302
0.39468
0.46281
0.55722
0.65974
0.775887
0.891709
1.002989
1.091559
1.143792
1.13925
1.109727
1.030566
0.860239
0.708081
0.575064
0.476761
0.427772
0.43718
0.513097
0.610751
0.717814
0.83396
0.953027
1.054249
1.123353
1.152876
1.118487
1.065604
0.979954
0.80833
0.664607
0.539701
0.459891
0.426474
0.470272
0.553651
0.652927
0.772967
0.884247
1.001691
1.092208
1.14801
1.163583
1.134384
1.074688
0.94524
0.787891
0.639301
0.527048
0.45178
0.440425
0.509529
0.609129
0.700294
0.818063
0.929992
1.044192
1.127246
1.174289
1.164232
1.134059
1.052952
0.870621
0.713272
0.576686
0.48033
0.435883
0.455024
0.530292
0.63703
0.75707
0.874839
0.994554
1.092857
1.160014
1.178507
1.142819
1.088315
0.993256
0.820659
0.67726
0.55138
0.464757
0.437505
0.482925
0.565655
0.671096
0.787242
0.8969
1.012398
1.108429
1.159365
1.171694
1.138926
1.082799
0.940049
0.77686
0.626324
0.515044
0.434909
0.425176
0.495254
0.590961
0.678882
0.798273
0.908579
1.01694
1.098048
1.137953
1.129842
1.09967
1.018562
0.844666
0.69121
0.559491
0.475788
0.427447
0.446264
0.51991
0.618862
0.720409
0.833636
0.954324
1.052627
1.117838
1.141197
1.107132
1.052303
0.957569
0.784971
0.638977
0.513746
0.426474
0.397924
0.443669
0.523479
0.627946
0.74831
0.85148
0.971844
1.064307
1.119784
1.131788
1.106807
1.052303
0.909553
0.744093
0.593881
0.485521
0.405386
0.399871
0.461188
0.562735
0.651305
0.775563
0.88522
0.992283
1.07404
1.114918
1.103887
1.068524
0.984172
0.807357
0.650656
0.517315
0.427123
0.375214
0.401493
0.488116
0.586419
0.693481
0.803139
0.924477
1.022131
1.084746
1.104861
1.070471
1.012073
0.913122
0.741173
0.593881
0.46865
0.389164
0.364832
0.406684
0.481952
0.582201
0.704188
0.814819
0.932587
1.026024
1.083773
1.096425
1.062684
1.001691
0.858617
0.696401
0.550407
0.442047
0.370347
0.356721
0.429718
0.52575
0.611725
0.729169
0.840773
0.954
1.037703
1.085395
1.075986
1.04549
0.963733
0.796326
0.64287
0.50888
0.414146
0.362237
0.381378
0.460215
0.559167
0.66558
0.778807
0.901442
1.00234
1.061062
1.085395
1.04841
0.988065
0.89106
0.722356
0.57701
0.458593
0.381378
0.361588
0.410901
0.492334
0.593881
0.713921
0.821956
0.941996
1.030241
1.087666
1.094803
1.061711
1.006233
0.861861
0.70289
0.562087
0.454051
0.384622
0.372618
0.443993
0.537105
0.626
0.743444
0.851155
0.962111
1.050032
1.099021
1.092857
1.065604
0.986119
0.80833
0.658118
0.525426
0.432963
0.387867
0.413821
0.492983
0.587392
0.693806
0.81125
0.927721
1.028295
1.092532
1.115891
1.080528
1.023428
0.924477
0.752852
0.610427
0.488441
0.40863
0.382676
0.43426
0.513097
0.60848
0.731115
0.842071
0.966977
1.05944
1.117838
1.121731
1.086368
1.031863
0.890411
0.721707
0.581877
0.467028
0.406359
0.396951
0.468001
0.569548
0.66266
0.779131
0.894953
1.007856
1.092532
1.133086
1.11654
1.083124
0.997149
0.819036
0.667851
0.530617
0.433287
0.386893
0.411875
0.498174
0.599721
0.713596
0.829094
0.955298
1.063658
1.131464
1.158392
1.119784
1.06236
0.954973
0.779456
0.631515
0.504987
0.420959
0.400195
0.459566
0.551056
0.65455
0.780753
0.897873
1.014669
1.09675
1.153525
1.154499
1.122055
1.057818
0.91669
0.749932
0.613996
0.501742
0.435883
0.425501
0.496551
0.596152
0.696726
0.813197
0.927397
1.039974
1.123353
1.168774
1.149632
1.111674
1.026024
0.851155
0.700294
0.567277
0.472868
0.42907
0.456971
0.537754
0.640599
0.74539
0.860564
0.974115
1.07404
1.12822
1.151579
1.115891
1.059116
0.954649
0.784647
0.641897
0.525101
0.44594
0.421932
0.478383
0.564358
0.660389
0.780105
0.890087
1.004936
1.096425
1.149632
1.152876
1.115567
1.047112
0.902091
0.734684
0.596152
0.479356
0.423554
0.409279
0.479356
0.569873
0.668176
0.777834
0.900793
1.013046
1.097074
1.143144
1.130491
1.091234
1.005585
0.832338
0.682126
0.548785
0.457944
0.425501
0.455997
0.533537
0.640275
0.738577
0.849857
0.968924
1.067551
1.119784
1.146063
1.111025
1.055223
0.944591
0.774589
0.627622
0.50596
0.429394
0.405062
0.46865
0.556247
0.655523
0.770696
0.879056
0.992283
1.076959
1.126922
1.124651
1.092857
1.027646
0.881327
0.720734
0.584797
0.470272
0.41155
0.406359
0.482276
0.572793
0.669473
0.789189
0.903064
1.009802
1.092857
1.128869
1.111349
1.070146
0.981252
0.804761
0.650981
0.520559
0.428096
0.390138
0.418039
0.492334
0.599396
0.695428
0.801193
0.912797
1.011749
1.067551
1.100967
1.068524
1.017264
0.906957
0.739875
0.594854
0.478708
0.399222
0.374241
0.433287
0.519262
0.618862
0.73436
0.848884
0.959191
1.047112
1.091234
1.094479
1.065929
0.992607
0.841098
0.683748
0.547163
0.435883
0.375863
0.369699
0.441398
0.534185
0.627946
0.744417
0.859915
0.967302
1.051005
1.088639
1.069498
1.027646
0.944591
0.766154
0.616267
0.490063
0.40052
0.365481
0.394031
0.464433
0.573117
0.672069
0.781402
0.895278
0.994229
1.047112
1.069822
1.03089
0.981577
0.874514
0.712298
0.571171
0.453078
0.376512
0.357046
0.416417
0.499147
0.604587
0.719436
0.830391
0.942969
1.027321
1.074688
1.074688
1.047761
0.971844
0.824876
0.670122
0.539052
0.426474
0.36613
0.359966
0.433612
0.528995
0.632813
0.747013
0.860888
0.971844
1.051978
1.091234
1.070146
1.03381
0.95108
0.778158
0.626973
0.50012
0.407333
0.364832
0.392733
0.463784
0.571171
0.674664
0.786918
0.907282
1.005909
1.064307
1.085719
1.048734
0.99942
0.884247
0.721382
0.576686
0.455349
0.370672
0.353477
0.409279
0.50012
0.599721
0.717165
0.835258
0.954324
1.045814
1.087017
1.087666
1.063009
0.995527
0.841422
0.693806
0.557544
0.448535
0.394355
0.390138
0.467028
0.556896
0.653252
0.764532
0.879705
0.990012
1.072417
1.113296
1.09383
1.049383
0.961137
0.792109
0.640923
0.509853
0.412199
0.379432
0.408306
0.479032
0.592259
0.702241
0.818712
0.935507
1.029592
1.078906
1.099021
1.060738
1.0111
0.894304
0.729169
0.583823
0.468326
0.395004
0.383974
0.441398
0.531914
0.626648
0.74247
0.851804
0.965355
1.058467
1.109727
1.105185
1.075986
1.003314
0.848884
0.688615
0.553002
0.446913
0.388191
0.385596
0.459891
0.553976
0.654225
0.773291
0.893656
0.999096
1.077284
1.111025
1.082799
1.038028
0.954973
0.789513
0.64287
0.517315
0.421608
0.388191
0.416741
0.495578
0.596152
0.704512
0.808006
0.927721
1.022779
1.076635
1.092857
1.059765
1.012398
0.885545
0.721707
0.575713
0.464433
0.388191
0.377485
0.433612
0.523804
0.619835
0.733386
0.847911
0.957569
1.050681
1.097074
1.092208
1.066253
0.994554
0.835907
0.68018
0.540674
0.441398
0.384622
0.386569
0.460539
0.55722
0.658767
0.776536
0.892033
0.995852
1.076311
1.116216
1.090586
1.047112
0.960813
0.792109
0.638977
0.50888
0.412524
0.378783
0.412524
0.492983
0.595827
0.713596
0.830391
0.952702
1.049058
1.100319
1.117513
1.080204
1.032837
0.906957
0.743768
0.596476
0.488441
0.42031
0.41155
0.465081
0.552678
0.647412
0.760639
0.873865
0.984821
1.076959
1.123678
1.123678
1.096425
1.028295
0.868026
0.717814
0.581877
0.475463
0.419012
0.414795
0.481952
0.558193
0.646763
0.755772
0.868674
0.969573
1.046787
1.082475
1.065929
1.031539
0.958542
0.797948
0.662985
0.541972
0.450806
0.417714
0.439451
0.498498
0.589663
0.69121
0.792757
0.904362
0.992283
1.047761
1.072093
1.058791
1.022779
0.909877
0.763234
0.623404
0.512773
0.434909
0.413172
0.452429
0.52575
0.610102
0.714569
0.815468
0.927397
1.008829
1.055547
1.061387
1.049058
0.993256
0.847586
0.707432
0.577335
0.470272
0.421932
0.40863
0.443345
0.485196
0.546189
0.624377
0.717489
0.806059
0.884572
0.924477
0.929992
0.926748
0.883598
0.763559
0.656172
0.555922
0.479356
0.433287
0.433612
0.453078
0.498498
0.569224
0.654225
0.749932
0.830716
0.882625
0.912797
0.915717
0.908579
0.834285
0.720734
0.604587
0.512773
0.443345
0.409279
0.425825
0.4547
0.500769
0.576686
0.657469
0.756097
0.838502
0.891385
0.913446
0.926099
0.899495
0.791784
0.686019
0.582201
0.496551
0.442696
0.419012
0.433287
0.464433
0.523155
0.598098
0.692184
0.787242
0.87127
0.91961
0.929992
0.917988
0.879381
0.754799
0.654225
0.551056
0.469299
0.426474
0.424528
0.442047
0.484223
0.551705
0.624377
0.71976
0.79146
0.845964
0.872892
0.884572
0.883274
0.807681
0.69705
0.58285
0.482925
0.411226
0.367752
0.379432
0.416092
0.458593
0.536456
0.616915
0.711001
0.784647
0.832987
0.855048
0.862835
0.83688
0.723005
0.618213
0.512773
0.420634
0.36321
0.33174
0.348286
0.386245
0.446264
0.52575
0.622755
0.717165
0.793731
0.843693
0.857644
0.850506
0.80833
0.686344
0.581877
0.480979
0.405711
0.354126
0.352828
0.369374
0.411875
0.478708
0.559816
0.663309
0.74831
0.807357
0.845964
0.861861
0.853102
0.777185
0.663958
0.54846
0.459242
0.395653
0.358668
0.378134
0.420634
0.461188
0.546838
0.627297
0.727222
0.803464
0.859915
0.87711
0.891385
0.867052
0.761612
0.655198
0.543269
0.454051
0.393058
0.373916
0.388191
0.426799
0.49136
0.573766
0.671096
0.766803
0.838502
0.886518
0.900469
0.89982
0.858293
0.734035
0.635408
0.529319
0.454051
0.40863
0.414146
0.432314
0.484223
0.56306
0.63995
0.743444
0.824876
0.880354
0.907931
0.924801
0.916041
0.832987
0.718138
0.604263
0.513422
0.453402
0.428745
0.449509
0.490712
0.533212
0.618213
0.700943
0.797299
0.87711
0.923179
0.943618
0.958542
0.934858
0.827147
0.726249
0.630217
0.546514
0.485845
0.469299
0.484547
0.518288
0.581228
0.660065
0.753501
0.849533
0.918961
0.972817
0.984496
0.983199
0.94232
0.821307
0.710352
0.609129
0.527048
0.477734
0.487792
0.505635
0.554949
0.628595
0.709054
0.810601
0.894953
0.94816
0.97671
0.98547
0.976386
0.8969
0.786269
0.684722
0.592908
0.523155
0.486494
0.501742
0.535483
0.578957
0.669798
0.759016
0.861537
0.939725
0.991958
1.007531
1.022131
0.993905
0.878083
0.774589
0.670122
0.57993
0.516342
0.499796
0.518937
0.557869
0.615942
0.70581
0.796975
0.891385
0.963408
1.015317
1.029268
1.029268
0.985145
0.858617
0.752852
0.650007
0.580904
0.53743
0.547812
0.564682
0.612049
0.693157
0.775238
0.877434
0.962111
1.017264
1.050681
1.064631
1.057494
0.979954
0.868999
0.759341
0.666878
0.608156
0.574739
0.593232
0.630217
0.671096
0.758043
0.84856
0.954
1.040299
1.09675
1.12238
1.143792
1.130166
1.030241
0.938103
0.844991
0.766478
0.723005
0.721058
0.750581
0.792433
0.85667
0.944267
1.034783
1.13114
1.20219
1.258641
1.263508
1.264481
1.21679
1.100643
0.992283
0.888465
0.808979
0.754474
0.754799
0.763234
0.796326
0.861212
0.939725
1.031863
1.106483
1.149308
1.182724
1.189537
1.184671
1.104536
0.986443
0.876785
0.778807
0.711325
0.660714
0.66558
0.688939
0.720734
0.787566
0.867377
0.964706
1.041272
1.098048
1.123353
1.134384
1.111025
1.000718
0.894629
0.784971
0.688615
0.632164
0.610751
0.623729
0.651305
0.704188
0.775887
0.863483
0.956271
1.020184
1.07404
1.088315
1.09383
1.044516
0.927072
0.820983
0.71684
0.633786
0.587392
0.588365
0.596152
0.630542
0.707432
0.779456
0.876136
0.952702
0.999745
1.029268
1.03673
1.038028
0.963408
0.852777
0.747661
0.656496
0.592908
0.555598
0.567277
0.59453
0.63119
0.711649
0.801841
0.895278
0.972168
1.026024
1.04257
1.058467
1.03965
0.920908
0.815792
0.715867
0.626973
0.57409
0.559816
0.576037
0.606534
0.653576
0.732089
0.824227
0.914095
0.979954
1.036406
1.04841
1.057494
1.010775
0.8969
0.795028
0.697374
0.619511
0.576362
0.577335
0.597125
0.633137
0.70581
0.782051
0.882301
0.96276
1.01402
1.046138
1.052303
1.051978
0.974439
0.865754
0.757719
0.663634
0.607507
0.562087
0.57701
0.597125
0.638652
0.717814
0.804112
0.898522
0.975737
1.032837
1.051654
1.063982
1.040948
0.929992
0.817414
0.719436
0.625351
0.56598
0.549109
0.57701
0.618213
0.675962
0.752203
0.843693
0.938103
0.995203
1.053276
1.059116
1.065929
1.014344
0.90566
0.798273
0.697699
0.618213
0.57409
0.572468
0.586743
0.621133
0.693481
0.767452
0.863483
0.941347
0.990336
1.01986
1.036081
1.034135
0.964057
0.859266
0.753177
0.662011
0.602965
0.558518
0.573442
0.594205
0.641572
0.719111
0.80541
0.8969
0.97379
1.023104
1.036406
1.048085
1.022131
0.910526
0.804761
0.712298
0.622431
0.567602
0.548136
0.570197
0.612698
0.666878
0.735982
0.825201
0.917988
0.982225
1.037379
1.039325
1.043867
0.994554
0.884896
0.775238
0.676611
0.60264
0.559491
0.562411
0.57409
0.609778
0.678557
0.757719
0.851155
0.930316
0.973141
1.00526
1.018237
1.009478
0.927072
0.818387
0.714894
0.619511
0.562087
0.520884
0.537754
0.561438
0.611725
0.6831
0.77394
0.866728
0.947836
0.996176
1.009153
1.022131
0.9965
0.888789
0.784322
0.685371
0.592259
0.535483
0.514071
0.530941
0.574415
0.630217
0.703214
0.793731
0.886843
0.948809
1.00818
1.018237
1.025375
0.967626
0.850506
0.743768
0.644168
0.562411
0.521533
0.523479
0.542621
0.579281
0.652927
0.738902
0.838827
0.920908
0.968275
0.994878
1.012073
1.001367
0.912797
0.808006
0.697374
0.610427
0.554625
0.508231
0.521208
0.544567
0.589014
0.669149
0.759665
0.849857
0.93421
0.982874
1.000069
1.008504
0.98839
0.881976
0.782051
0.683748
0.592259
0.538079
0.519262
0.525101
0.565331
0.624053
0.692832
0.790162
0.882625
0.94232
0.995203
1.005585
1.009478
0.957244
0.843369
0.742146
0.645141
0.569548
0.529968
0.536781
0.557544
0.591934
0.658118
0.730142
0.825525
0.899171
0.943943
0.981252
0.998771
0.991634
0.905335
0.80249
0.69705
0.609454
0.558518
0.512773
0.522506
0.546838
0.595503
0.676286
0.771994
0.863159
0.947836
0.999096
1.013371
1.01986
0.994878
0.886518
0.780105
0.676611
0.58577
0.532888
0.515693
0.524128
0.559816
0.61724
0.686344
0.783673
0.872243
0.937129
0.9965
1.011424
1.018562
0.957244
0.841422
0.735333
0.634435
0.554949
0.510502
0.514071
0.541972
0.585121
0.662985
0.739875
0.835907
0.911175
0.962111
0.990012
1.009478
0.995852
0.901118
0.795677
0.686668
0.597774
0.547163
0.507582
0.521208
0.548136
0.599396
0.678557
0.771994
0.858293
0.943618
0.991634
1.011749
1.015642
0.988714
0.875163
0.774914
0.670447
0.582201
0.526723
0.506609
0.519586
0.56014
0.613022
0.681477
0.775887
0.868674
0.934858
0.993905
1.002665
1.016615
0.950107
0.83396
0.725924
0.628595
0.551056
0.509204
0.519586
0.542621
0.581552
0.652927
0.733386
0.827796
0.908904
0.960489
0.991958
1.011749
0.998123
0.902091
0.795353
0.689588
0.598747
0.542621
0.503689
0.516666
0.538403
0.587392
0.663309
0.756097
0.84856
0.934534
0.986443
1.00818
1.017588
0.997149
0.884247
0.781402
0.674989
0.586419
0.535483
0.516666
0.529319
0.573442
0.635084
0.71684
0.809628
0.899495
0.961786
1.011424
1.018237
1.019211
0.941996
0.825849
0.707756
0.610102
0.533212
0.499796
0.511475
0.537105
0.571495
0.646763
0.720409
0.82001
0.89398
0.935832
0.961137
0.977035
0.959515
0.860564
0.75415
0.642221
0.561113
0.50596
0.477085
0.49136
0.525101
0.57409
0.65163
0.745066
0.837853
0.917664
0.968924
0.979306
0.98255
0.954649
0.835907
0.728195
0.622106
0.53451
0.480654
0.476112
0.491036
0.534834
0.594854
0.667202
0.759341
0.846613
0.904362
0.949133
0.960164
0.968924
0.890736
0.769398
0.653252
0.553327
0.474814
0.439451
0.44594
0.476761
0.512124
0.587392
0.664282
0.761288
0.835258
0.879381
0.908579
0.924477
0.908255
0.803464
0.69705
0.582526
0.500445
0.446913
0.418363
0.435234
0.469299
0.521208
0.598747
0.686344
0.776536
0.852128
0.894629
0.899171
0.889438
0.848884
0.719111
0.608156
0.489738
0.397275
0.344393
0.329145
0.336931
0.367103
0.425501
0.498822
0.590312
0.673367
0.723329
0.762261
0.770372
0.770372
0.690561
0.571819
0.456322
0.358019
0.290213
0.257121
0.279182
0.321034
0.365805
0.44886
0.532563
0.633461
0.708405
0.75999
0.784971
0.804112
0.78854
0.688615
0.588365
0.479032
0.398573
0.351206
0.324927
0.351206
0.389164
0.454375
0.537754
0.632813
0.728844
0.806384
0.85959
0.877758
0.880354
0.857319
0.741822
0.648385
0.543594
0.457944
0.417066
0.409604
0.435234
0.477085
0.547812
0.629244
0.734035
0.821307
0.883274
0.929019
0.953027
0.965031
0.891385
0.783024
0.673042
0.577659
0.504338
0.467677
0.481627
0.516666
0.557544
0.638328
0.720734
0.824227
0.906308
0.956271
0.971519
0.984821
0.965355
0.857644
0.749932
0.638977
0.552678
0.503689
0.48033
0.502716
0.533861
0.59161
0.67434
0.76291
0.858617
0.934534
0.978008
0.986767
0.981252
0.9394
0.820659
0.71976
0.616591
0.534185
0.485196
0.480979
0.498822
0.550407
0.620484
0.69997
0.803788
0.893656
0.953675
0.997474
1.004936
1.000069
0.929019
0.815792
0.709054
0.604911
0.539052
0.502391
0.518613
0.559167
0.604911
0.690237
0.778807
0.878732
0.953351
1.007531
1.022779
1.038028
1.013371
0.907931
0.801517
0.695428
0.612049
0.556247
0.530941
0.553976
0.595179
0.665256
0.753826
0.854724
0.947836
1.01986
1.069498
1.077933
1.074364
1.039325
0.920583
0.818387
0.711325
0.628595
0.57993
0.57701
0.59745
0.645141
0.719111
0.797299
0.897224
0.985794
1.048085
1.084421
1.104861
1.098372
1.020833
0.902415
0.787891
0.691535
0.621458
0.58869
0.606209
0.636706
0.67434
0.758368
0.841747
0.940374
1.007856
1.061062
1.075986
1.093181
1.065604
0.958866
0.851155
0.743444
0.655523
0.592583
0.561113
0.578957
0.610427
0.674015
0.75999
0.861212
0.966004
1.040623
1.084746
1.092208
1.087341
1.050681
0.930641
0.822281
0.71976
0.634759
0.583823
0.580255
0.592583
0.640923
0.706783
0.777509
0.869648
0.949782
0.997798
1.032188
1.036081
1.022779
0.938103
0.81417
0.688615
0.571171
0.48325
0.419661
0.416741
0.440425
0.47157
0.550407
0.632813
0.732738
0.797299
0.85148
0.86835
0.892682
0.871919
0.775563
0.682775
0.586419
0.50888
0.457944
0.435234
0.448535
0.485521
0.547812
0.636381
0.727547
0.825525
0.904686
0.955622
0.975737
0.975412
0.952053
0.843044
0.748635
0.649359
0.581552
0.543918
0.56014
0.586094
0.645141
0.729493
0.813521
0.924477
1.024077
1.087017
1.137304
1.15969
1.154499
1.084421
0.975088
0.876136
0.790811
0.733386
0.703539
0.726249
0.758043
0.800544
0.884572
0.968924
1.070146
1.146712
1.200244
1.226522
1.247611
1.231389
1.134384
1.033486
0.934858
0.853751
0.80541
0.783349
0.798273
0.834933
0.8969
0.977683
1.070471
1.159365
1.231389
1.281676
1.289462
1.288813
1.253775
1.136006
1.036081
0.925774
0.840449
0.787242
0.785944
0.798597
0.842071
0.909553
0.98547
1.069498
1.161636
1.212572
1.251179
1.269023
1.263832
1.183049
1.066253
0.954973
0.860239
0.798273
0.756421
0.771345
0.792757
0.826174
0.893007
0.969573
1.06236
1.12822
1.176884
1.19343
1.211923
1.194079
1.098048
0.997474
0.89398
0.811574
0.757394
0.730142
0.74247
0.767452
0.827472
0.905335
0.98839
1.079231
1.141197
1.193755
1.206732
1.218087
1.193106
1.081177
0.978332
0.873541
0.784971
0.725924
0.723653
0.729169
0.769074
0.833311
0.910526
1.001042
1.086044
1.138277
1.172018
1.178182
1.17948
1.107456
0.992607
0.884247
0.784647
0.720085
0.677909
0.692184
0.713272
0.747986
0.821956
0.901442
0.987741
1.057169
1.101616
1.115891
1.129842
1.105509
1.000718
0.89398
0.794704
0.707756
0.653576
0.624702
0.632488
0.653901
0.708405
0.783673
0.872243
0.965355
1.03089
1.081502
1.088639
1.084746
1.042245
0.93129
0.828445
0.726249
0.641572
0.595179
0.593881
0.601667
0.634759
0.695752
0.767127
0.85667
0.944591
0.998447
1.038677
1.050681
1.050681
0.965355
0.850182
0.73728
0.636706
0.574739
0.537754
0.555922
0.585121
0.616915
0.689913
0.770047
0.859266
0.927397
0.977035
0.991958
1.00818
0.985145
0.873865
0.766803
0.667527
0.581552
0.527372
0.508555
0.516666
0.537105
0.597125
0.674664
0.765505
0.849208
0.912148
0.95984
0.961137
0.966004
0.932912
0.826174
0.727547
0.629893
0.54035
0.493956
0.491685
0.50304
0.540674
0.604263
0.674015
0.761936
0.844018
0.895602
0.937454
0.956595
0.966004
0.876461
0.768425
0.660389
0.569224
0.502067
0.465406
0.480654
0.509853
0.544243
0.615618
0.698348
0.790486
0.861861
0.906633
0.923503
0.939725
0.917664
0.810601
0.709054
0.606534
0.525101
0.477085
0.452753
0.468975
0.48033
0.541972
0.613671
0.70289
0.794704
0.856022
0.916366
0.930316
0.935183
0.894629
0.795677
0.693806
0.601343
0.511151
0.466379
0.464757
0.475139
0.506933
0.575388
0.652603
0.745715
0.83104
0.888465
0.937454
0.953675
0.959515
0.872243
0.764856
0.657145
0.563384
0.50596
0.46281
0.478059
0.502067
0.541323
0.610751
0.696401
0.786269
0.860239
0.903713
0.918961
0.929992
0.909553
0.801841
0.698997
0.599721
0.517315
0.469624
0.441398
0.4547
0.474814
0.531914
0.601992
0.689913
0.778482
0.849208
0.90274
0.911175
0.914095
0.86835
0.759341
0.653576
0.559816
0.468975
0.425176
0.425501
0.441398
0.470597
0.532239
0.603614
0.693481
0.772318
0.824876
0.870621
0.892682
0.903064
0.819361
0.713596
0.603289
0.511475
0.450158
0.407333
0.421283
0.443993
0.484872
0.55138
0.635408
0.723329
0.79957
0.840773
0.855048
0.868026
0.854724
0.75707
0.657469
0.559816
0.472868
0.430367
0.410253
0.427123
0.454375
0.508555
0.579281
0.671096
0.760963
0.824876
0.87711
0.883598
0.886518
0.834933
0.729818
0.623404
0.529968
0.44594
0.405386
0.409604
0.424203
0.459566
0.52575
0.600694
0.690561
0.772643
0.828445
0.867377
0.88522
0.887816
0.804437
0.69997
0.596152
0.50012
0.444318
0.404088
0.41739
0.442696
0.484223
0.5543
0.643843
0.727871
0.807032
0.858941
0.874839
0.88814
0.868999
0.757719
0.657794
0.550407
0.470921
0.42323
0.402791
0.419985
0.453078
0.516342
0.595827
0.692832
0.781727
0.845964
0.898198
0.911175
0.91377
0.863159
0.752203
0.644168
0.549434
0.46573
0.422581
0.423879
0.441074
0.483574
0.556896
0.634435
0.734684
0.824876
0.887167
0.922854
0.944916
0.940374
0.847586
0.74539
0.642546
0.549758
0.49136
0.452104
0.47157
0.494605
0.539376
0.613996
0.705485
0.793406
0.86835
0.908579
0.927072
0.931614
0.916041
0.807032
0.713596
0.616267
0.536456
0.492009
0.475788
0.492334
0.53159
0.593881
0.660065
0.756097
0.844018
0.916366
0.967302
0.97671
0.977035
0.929343
0.826498
0.723653
0.633137
0.555922
0.518288
0.515368
0.536781
0.566629
0.644492
0.715543
0.815143
0.897549
0.95108
0.995527
1.020833
1.011749
0.921232
0.818063
0.711649
0.619835
0.560464
0.520235
0.535483
0.560464
0.600694
0.673042
0.760314
0.849857
0.926748
0.974764
0.993905
1.004287
0.990661
0.879056
0.7827
0.6831
0.605885
0.551056
0.532239
0.537754
0.576686
0.628271
0.695103
0.78562
0.866403
0.928694
0.975737
0.984496
0.989039
0.948485
0.84856
0.753177
0.662336
0.580904
0.539052
0.539052
0.555598
0.580904
0.650656
0.723329
0.816441
0.890087
0.937778
0.983199
1.008504
1.00234
0.911175
0.813197
0.712947
0.628595
0.574415
0.532888
0.541647
0.563709
0.601667
0.673691
0.761936
0.84564
0.919935
0.958866
0.974764
0.984496
0.969897
0.863159
0.77102
0.668176
0.588365
0.533861
0.516017
0.521208
0.56306
0.62308
0.690886
0.7827
0.873216
0.930316
0.982225
0.991958
0.9965
0.94816
0.842071
0.739875
0.640599
0.555598
0.513422
0.512773
0.532888
0.559167
0.630866
0.705485
0.797948
0.883598
0.933885
0.970546
0.994229
0.981577
0.892033
0.786269
0.678557
0.593556
0.529319
0.491036
0.503689
0.529319
0.571171
0.652927
0.738902
0.827472
0.894953
0.937778
0.947187
0.951404
0.934858
0.829094
0.739551
0.643194
0.56598
0.515044
0.492009
0.489738
0.523479
0.581877
0.652603
0.747337
0.832987
0.890087
0.936156
0.949782
0.957244
0.904037
0.800544
0.700943
0.604263
0.516991
0.47157
0.475463
0.49136
0.521208
0.586094
0.660714
0.754474
0.834933
0.894953
0.929343
0.958542
0.943943
0.846937
0.742795
0.633461
0.543918
0.488116
0.44886
0.452429
0.479032
0.513097
0.591934
0.673367
0.760963
0.830067
0.87711
0.897873
0.909877
0.901442
0.797624
0.703863
0.594854
0.520884
0.467028
0.450806
0.454375
0.495902
0.552678
0.622755
0.718138
0.802815
0.862835
0.910526
0.923179
0.929019
0.877758
0.766154
0.663309
0.565006
0.485521
0.44594
0.44886
0.472868
0.498822
0.570522
0.640275
0.73728
0.819685
0.875487
0.913122
0.9394
0.928694
0.835582
0.729169
0.625026
0.543269
0.487143
0.449509
0.457295
0.475139
0.512448
0.588041
0.675313
0.772318
0.841747
0.893331
0.909877
0.918961
0.898522
0.791135
0.697374
0.596476
0.52575
0.47741
0.455024
0.458917
0.490063
0.550731
0.627946
0.73436
0.819036
0.883923
0.92545
0.938103
0.949133
0.898522
0.790162
0.686993
0.590637
0.515044
0.473192
0.47157
0.495254
0.521857
0.595179
0.665256
0.763234
0.846937
0.901118
0.938103
0.968599
0.956271
0.859266
0.75707
0.65163
0.568251
0.50888
0.475139
0.488116
0.50888
0.549109
0.623404
0.70581
0.796975
0.869323
0.920908
0.936156
0.947836
0.923828
0.815143
0.722356
0.62016
0.539052
0.488116
0.468326
0.473517
0.507906
0.573766
0.650981
0.750257
0.837529
0.902091
0.950431
0.967302
0.976386
0.917988
0.814494
0.713272
0.617564
0.533861
0.485521
0.487792
0.511151
0.546514
0.618862
0.696401
0.797624
0.874514
0.927397
0.95984
0.991958
0.985145
0.886518
0.7827
0.685695
0.604263
0.556571
0.517315
0.52283
0.541972
0.584472
0.661363
0.75123
0.850506
0.921881
0.970546
0.985145
0.993581
0.968924
0.864132
0.763883
0.669473
0.592259
0.548136
0.527372
0.527372
0.559816
0.622755
0.69705
0.787891
0.872568
0.929992
0.973466
0.989363
1.000718
0.944916
0.854075
0.763559
0.671744
0.598747
0.54846
0.553976
0.569224
0.598747
0.669149
0.743119
0.843044
0.923503
0.981577
1.010775
1.040299
1.023753
0.931939
0.82293
0.71976
0.631515
0.575388
0.537754
0.544243
0.561762
0.607507
0.681802
0.763234
0.847586
0.907931
0.959515
0.972492
0.980279
0.961137
0.860239
0.767127
0.667527
0.593556
0.54035
0.523479
0.517639
0.546189
0.605236
0.686668
0.782051
0.873216
0.934858
0.978981
0.994878
0.997798
0.929668
0.823254
0.719436
0.623729
0.550731
0.503689
0.510177
0.529968
0.559816
0.626324
0.698672
0.797624
0.87711
0.935832
0.972492
1.004287
0.988714
0.889114
0.783024
0.678233
0.58869
0.530617
0.49428
0.498822
0.517639
0.564358
0.635732
0.724951
0.814819
0.882625
0.940049
0.956595
0.964706
0.938427
0.832662
0.739551
0.635408
0.56306
0.508231
0.499796
0.498498
0.536456
0.594205
0.670771
0.760314
0.849857
0.905984
0.949133
0.97671
0.979306
0.919286
0.81709
0.718787
0.625351
0.553651
0.509204
0.515693
0.526399
0.548785
0.618862
0.692832
0.791135
0.877434
0.933236
0.971195
1.00234
0.986767
0.88814
0.782376
0.675313
0.586419
0.526723
0.494929
0.495902
0.511475
0.559491
0.626324
0.711325
0.796326
0.855697
0.90566
0.921232
0.92837
0.901118
0.787891
0.68829
0.587392
0.51472
0.469624
0.459891
0.460864
0.496876
0.547812
0.620484
0.709054
0.793406
0.851804
0.900469
0.920259
0.926423
0.855373
0.754799
0.650981
0.548785
0.475788
0.429394
0.439451
0.464108
0.492009
0.56598
0.638652
0.727222
0.805735
0.857319
0.894953
0.926748
0.911175
0.810601
0.710352
0.610102
0.521533
0.46573
0.435234
0.444967
0.463459
0.511475
0.57701
0.666229
0.75415
0.820659
0.872892
0.889114
0.897549
0.869648
0.75707
0.660714
0.563709
0.493631
0.444642
0.435883
0.437505
0.476112
0.539376
0.612698
0.703214
0.792757
0.847911
0.892682
0.913122
0.917015
0.852777
0.753826
0.652927
0.558518
0.489414
0.453078
0.468001
0.488765
0.520559
0.59161
0.674664
0.767452
0.85148
0.904686
0.940049
0.967302
0.949458
0.846937
0.742795
0.638652
0.554625
0.496227
0.461513
0.465081
0.482925
0.533212
0.599072
0.682126
0.762585
0.823254
0.867377
0.876136
0.883923
0.864132
0.766478
0.67142
0.567926
0.485845
0.435234
0.428421
0.437505
0.486818
0.552029
0.627946
0.716192
0.801841
0.851155
0.89398
0.911499
0.913446
0.840773
0.743768
0.635084
0.54035
0.471246
0.428421
0.435883
0.456322
0.487792
0.555598
0.636706
0.732413
0.80833
0.867701
0.898522
0.929019
0.912797
0.815143
0.71684
0.620484
0.536456
0.484223
0.449184
0.4547
0.47449
0.523804
0.599721
0.696401
0.797948
0.862835
0.917015
0.929668
0.936156
0.909228
0.809628
0.720085
0.642546
0.577335
0.539052
0.534185
0.53159
0.57993
0.648385
0.726249
0.820983
0.907282
0.966328
1.014993
1.043867
1.065604
1.00234
0.904686
0.804761
0.708081
0.631515
0.590961
0.599072
0.621458
0.652603
0.723978
0.804761
0.903713
0.985145
1.045814
1.075013
1.098372
1.081826
0.974115
0.871594
0.767776
0.682451
0.628271
0.599721
0.604263
0.62016
0.667527
0.74247
0.833311
0.919935
0.977359
1.022131
1.032188
1.036081
1.000718
0.893007
0.789837
0.690561
0.614969
0.564358
0.557869
0.563709
0.596801
0.667527
0.735657
0.830716
0.91669
0.97087
1.010775
1.022779
1.02505
0.947187
0.8398
0.73144
0.638328
0.559491
0.524777
0.531914
0.558193
0.589339
0.664607
0.749932
0.8398
0.919286
0.969248
0.997149
1.017588
0.99942
0.887816
0.786593
0.686668
0.604911
0.55138
0.524452
0.539376
0.56014
0.613671
0.687642
0.786593
0.873541
0.934534
0.981252
0.988065
0.997149
0.961137
0.853102
0.75415
0.661687
0.580904
0.538079
0.52867
0.540025
0.57409
0.648385
0.730791
0.832662
0.920583
0.974764
1.014669
1.032188
1.040299
0.965031
0.863808
0.755123
0.661038
0.589988
0.5543
0.569548
0.592259
0.632813
0.706459
0.797948
0.890411
0.966977
1.015317
1.046138
1.058791
1.037703
0.926099
0.822281
0.715218
0.632488
0.579606
0.557544
0.58577
0.611725
0.669149
0.738902
0.834285
0.917664
0.980279
1.023428
1.034783
1.036406
0.997474
0.891385
0.785295
0.688615
0.60848
0.566629
0.556896
0.564682
0.596476
0.666553
0.733711
0.823903
0.907606
0.965031
0.998123
1.01402
1.031539
0.959515
0.858617
0.750906
0.649359
0.578308
0.529643
0.536132
0.552029
0.59161
0.66266
0.75123
0.841422
0.919286
0.964382
0.988065
1.00526
0.986767
0.87127
0.765181
0.657469
0.564358
0.519262
0.492334
0.5118
0.541647
0.599072
0.669149
0.75999
0.84272
0.912473
0.960489
0.972168
0.981901
0.939725
0.83688
0.73436
0.638004
0.56306
0.518288
0.510826
0.522506
0.552354
0.626648
0.703214
0.795677
0.880678
0.941996
0.980279
0.996176
0.992283
0.908579
0.802166
0.696726
0.599721
0.533537
0.490063
0.507906
0.528346
0.570846
0.638652
0.723978
0.816441
0.894953
0.942645
0.971195
0.990012
0.970546
0.860239
0.755448
0.650007
0.562411
0.507582
0.485521
0.491036
0.520235
0.575064
0.646114
0.741822
0.826174
0.886518
0.935832
0.943618
0.940049
0.899171
0.788864
0.689264
0.586743
0.504338
0.460215
0.455673
0.470921
0.499796
0.566304
0.639626
0.734684
0.808655
0.862835
0.885869
0.899171
0.897549
0.81417
0.712298
0.61724
0.524128
0.456322
0.412848
0.421283
0.442371
0.478708
0.554625
0.642546
0.735657
0.817414
0.86543
0.887167
0.897873
0.874839
0.755448
0.653901
0.543269
0.458593
0.404737
0.383649
0.395004
0.427447
0.480654
0.550407
0.644168
0.730467
0.789837
0.834609
0.847586
0.849533
0.801841
0.692508
0.590312
0.493956
0.417066
0.376187
0.382027
0.403115
0.439776
0.513746
0.589663
0.688615
0.770047
0.828445
0.862186
0.883598
0.879056
0.792757
0.693481
0.584797
0.49428
0.430043
0.392409
0.404088
0.428096
0.469948
0.552354
0.638652
0.733711
0.816116
0.864781
0.887816
0.893656
0.874514
0.756097
0.654874
0.546838
0.465406
0.410253
0.393382
0.404737
0.44594
0.498174
0.57701
0.671096
0.75123
0.809303
0.853751
0.873216
0.884572
0.834609
0.726249
0.623729
0.526075
0.447562
0.40863
0.404088
0.421608
0.455024
0.527697
0.60264
0.698672
0.779131
0.83396
0.867701
0.87711
0.864781
0.770696
0.665905
0.5543
0.459242
0.391436
0.349908
0.358668
0.381703
0.420634
0.494929
0.575388
0.669149
0.757394
0.809303
0.834933
0.845964
0.823254
0.713596
0.613347
0.505635
0.423554
0.36613
0.346015
0.351855
0.391111
0.448535
0.520884
0.61432
0.700619
0.749608
0.793731
0.798922
0.79438
0.744742
0.626324
0.51991
0.41739
0.33758
0.293782
0.290537
0.307083
0.344393
0.411226
0.484547
0.576037
0.655847
0.710676
0.739226
0.750906
0.734035
0.640599
0.534185
0.428096
0.333038
0.268476
0.23214
0.24317
0.272045
0.315519
0.394355
0.485845
0.58577
0.662336
0.710352
0.725924
0.739226
0.706783
0.581552
0.475139
0.36613
0.292484
0.240899
0.220136
0.21462
0.259067
0.307408
0.389489
0.481952
0.563709
0.613671
0.646439
0.650656
0.643843
0.597774
0.481952
0.368725
0.260041
0.18315
0.130917
0.133837
0.149734
0.18607
0.262961
0.348286
0.4547
0.541972
0.601667
0.631839
0.657145
0.636381
0.548136
0.445291
0.344393
0.252903
0.190288
0.153627
0.173742
0.206185
0.248037
0.331416
0.42615
0.524128
0.606209
0.662011
0.6831
0.705485
0.686344
0.580579
0.479356
0.378783
0.305137
0.259392
0.246415
0.257121
0.311625
0.37197
0.455673
0.55138
0.640275
0.700943
0.746364
0.761288
0.762261
0.719436
0.615618
0.515368
0.419337
0.354126
0.317465
0.327198
0.353477
0.395329
0.48325
0.565655
0.671096
0.752203
0.821632
0.852453
0.884247
0.873216
0.786269
0.681802
0.581552
0.487792
0.431016
0.394355
0.415443
0.450806
0.497849
0.589339
0.679531
0.781078
0.868674
0.921881
0.938427
0.951404
0.929992
0.824227
0.727222
0.627946
0.553651
0.509204
0.496227
0.50304
0.552029
0.621133
0.712298
0.827147
0.917664
0.976061
1.022455
1.036081
1.039325
0.991958
0.890411
0.786918
0.691535
0.620809
0.577659
0.584797
0.613347
0.655523
0.741173
0.825525
0.932263
1.019211
1.079555
1.120109
1.146388
1.131788
1.04257
0.930965
0.830067
0.735009
0.67142
0.640923
0.656172
0.685046
0.727222
0.807357
0.90274
0.998447
1.074364
1.129517
1.145739
1.158392
1.136979
1.022131
0.926099
0.827147
0.747013
0.704188
0.692508
0.698997
0.745066
0.806384
0.891385
0.989687
1.079231
1.139575
1.186942
1.20219
1.206083
1.149632
1.045165
0.943943
0.850831
0.784971
0.747013
0.760314
0.787242
0.83688
0.91961
1.007207
1.112323
1.206732
1.270321
1.310875
1.342345
1.333261
1.248584
1.153201
1.062684
0.986443
0.942969
0.925774
0.962435
1.007856
1.076635
1.179155
1.281351
1.380628
1.458816
1.509751
1.524675
1.531813
1.504885
1.393605
1.29076
1.193106
1.112647
1.063009
1.049383
1.058142
1.101941
1.161961
1.245664
1.34202
1.434808
1.500992
1.549332
1.558741
1.572042
1.521106
1.423128
1.330016
1.243393
1.194079
1.164232
1.188888
1.228794
1.292707
1.395876
1.507156
1.639849
1.753724
1.834183
1.877008
1.899718
1.880577
1.776759
1.656719
1.537004
1.422155
1.341371
1.288489
1.29076
1.30244
1.334883
1.400093
1.475362
1.55647
1.619734
1.664505
1.677807
1.682025
1.652501
1.542519
1.440323
1.331314
1.238526
1.184346
1.169098
1.171694
1.204461
1.255072
1.320932
1.406258
1.483797
1.530839
1.574313
1.579504
1.583073
1.513645
1.400742
1.288813
1.189537
1.118487
1.07112
1.083773
1.106483
1.155472
1.232038
1.326772
1.433834
1.530839
1.594104
1.631738
1.657368
1.634982
1.543817
1.433834
1.330341
1.229767
1.162934
1.121407
1.130166
1.146712
1.18824
1.255397
1.340074
1.429941
1.498072
1.546088
1.559065
1.562958
1.521755
1.399445
1.284271
1.165205
1.072093
1.009802
0.989363
0.980603
1.010127
1.06528
1.132113
1.22198
1.297249
1.342669
1.38225
1.386792
1.380952
1.305035
1.186617
1.069173
0.960164
0.881652
0.829743
0.834285
0.85667
0.8969
0.959191
1.03381
1.122704
1.197648
1.258641
1.290436
1.320608
1.308928
1.208354
1.101941
0.983523
0.881327
0.813197
0.767776
0.77102
0.7827
0.827147
0.896575
0.980603
1.066902
1.135357
1.177209
1.183049
1.180453
1.146388
1.029268
0.914744
0.802166
0.709703
0.646114
0.627622
0.632488
0.671744
0.728195
0.800219
0.889114
0.969573
1.019211
1.057494
1.063982
1.063009
0.988714
0.875487
0.757394
0.652279
0.573442
0.523804
0.522506
0.54035
0.582526
0.657469
0.734035
0.825525
0.903064
0.950756
0.980279
0.997798
0.984496
0.878407
0.770372
0.661363
0.570522
0.508555
0.469299
0.478708
0.496227
0.548136
0.616915
0.712623
0.808006
0.882301
0.940374
0.952702
0.953027
0.919286
0.812223
0.709054
0.610102
0.531914
0.476761
0.467028
0.47157
0.506933
0.57409
0.651305
0.748959
0.830067
0.887167
0.926748
0.941023
0.943618
0.870945
0.764532
0.651954
0.557544
0.488765
0.443669
0.449184
0.471246
0.511151
0.58869
0.675962
0.780753
0.864781
0.917339
0.945565
0.963408
0.945565
0.847262
0.750581
0.651954
0.554625
0.4972
0.463135
0.472868
0.493956
0.548785
0.622755
0.70873
0.799246
0.871919
0.928694
0.950107
0.96795
0.932587
0.821956
0.726249
0.638004
0.558193
0.50888
0.498174
0.50888
0.547487
0.616267
0.690237
0.790486
0.875163
0.920259
0.960489
0.971195
0.973141
0.900469
0.796651
0.686668
0.597125
0.532888
0.488441
0.496551
0.523804
0.567602
0.638328
0.722031
0.819036
0.900793
0.95984
0.988714
1.0111
0.995527
0.88814
0.785295
0.679206
0.580255
0.524128
0.495578
0.501418
0.521857
0.577335
0.655523
0.750257
0.848884
0.917664
0.974439
0.987741
1.004611
0.974439
0.858941
0.746039
0.637355
0.553976
0.505311
0.503689
0.512124
0.554625
0.623404
0.703214
0.80249
0.886194
0.94232
0.984496
1.006233
1.002989
0.929019
0.823578
0.710676
0.619511
0.552678
0.513097
0.524452
0.555273
0.59161
0.669473
0.748959
0.85148
0.931614
0.982225
1.012722
1.029268
1.010451
0.89982
0.793082
0.685046
0.585446
0.521533
0.496227
0.506284
0.537754
0.59745
0.674015
0.771345
0.867701
0.940698
0.988714
1.003638
1.008504
0.97087
0.848884
0.743768
0.639301
0.557869
0.512448
0.503689
0.513746
0.550083
0.619511
0.695752
0.79438
0.872568
0.92253
0.955946
0.975088
0.975412
0.904362
0.798922
0.688615
0.591285
0.523804
0.483899
0.488765
0.522181
0.553651
0.635084
0.721058
0.815792
0.896575
0.948809
0.97379
0.985145
0.96795
0.858293
0.750906
0.648061
0.559491
0.501093
0.472543
0.484872
0.510826
0.572468
0.644817
0.738577
0.82812
0.897224
0.950756
0.963408
0.968599
0.937129
0.821307
0.715218
0.610751
0.529643
0.48033
0.47157
0.48033
0.516666
0.59161
0.665905
0.764532
0.841422
0.897224
0.936156
0.957244
0.957244
0.880029
0.768425
0.65163
0.552354
0.482276
0.4401
0.453402
0.487792
0.527372
0.607831
0.692508
0.787242
0.867701
0.914419
0.938752
0.954
0.936156
0.824227
0.723653
0.613347
0.516342
0.455997
0.431341
0.447562
0.467353
0.527048
0.601018
0.70289
0.793406
0.864132
0.915717
0.932263
0.933561
0.890087
0.769398
0.669473
0.567602
0.484223
0.442696
0.435234
0.450482
0.486818
0.561113
0.634435
0.735657
0.816116
0.86251
0.8969
0.909553
0.915717
0.835582
0.733062
0.621782
0.527048
0.464108
0.422581
0.42907
0.454375
0.490063
0.568251
0.652279
0.74831
0.835907
0.887816
0.909553
0.921557
0.903389
0.795028
0.695103
0.585121
0.485521
0.426799
0.404737
0.419985
0.448211
0.504338
0.584148
0.686668
0.7827
0.843369
0.897224
0.91085
0.908579
0.86251
0.743444
0.639301
0.537105
0.460864
0.41155
0.403439
0.409928
0.443669
0.517639
0.596801
0.700619
0.786593
0.838502
0.875163
0.881327
0.879381
0.797624
0.685695
0.578633
0.476437
0.410577
0.369699
0.376836
0.405062
0.44594
0.533861
0.625351
0.720734
0.798922
0.855373
0.86835
0.886194
0.863159
0.752528
0.649034
0.541647
0.448211
0.382351
0.361263
0.372618
0.396626
0.444318
0.518288
0.609129
0.698348
0.765181
0.811899
0.826498
0.832662
0.780753
0.661363
0.549758
0.437829
0.356072
0.305461
0.301892
0.321358
0.358668
0.434909
0.511151
0.609129
0.690237
0.746688
0.778158
0.787891
0.78562
0.707107
0.600369
0.483574
0.389813
0.326225
0.2834
0.283724
0.306759
0.345042
0.423879
0.517315
0.614969
0.693157
0.747986
0.766478
0.771669
0.747337
0.636057
0.535159
0.431989
0.341797
0.282751
0.262312
0.270098
0.307408
0.359317
0.433936
0.530292
0.627297
0.69413
0.744417
0.755123
0.759341
0.711649
0.59745
0.496551
0.385271
0.310328
0.267178
0.264907
0.279182
0.308057
0.381054
0.455024
0.552678
0.630542
0.686993
0.715218
0.72852
0.713921
0.630866
0.520559
0.409604
0.316492
0.256796
0.210727
0.218838
0.241548
0.285346
0.367428
0.458593
0.552354
0.629893
0.680828
0.696077
0.698997
0.674664
0.553976
0.449509
0.3405
0.250308
0.197101
0.175689
0.190288
0.228246
0.2834
0.366454
0.460215
0.55138
0.614644
0.663958
0.681477
0.688939
0.636706
0.518613
0.410253
0.310328
0.237006
0.192235
0.200345
0.222731
0.263934
0.35153
0.433612
0.53451
0.613996
0.668176
0.699321
0.71684
0.705485
0.62016
0.5118
0.406035
0.319736
0.262312
0.220785
0.233762
0.262312
0.318438
0.407008
0.502716
0.611076
0.697374
0.750906
0.771345
0.776536
0.760314
0.648061
0.548136
0.443669
0.354126
0.299946
0.281129
0.297675
0.341473
0.404088
0.489414
0.59745
0.697374
0.764532
0.824552
0.837529
0.844666
0.784647
0.674015
0.572793
0.477734
0.407008
0.368076
0.376836
0.398897
0.4401
0.520559
0.612698
0.714245
0.801517
0.857319
0.884896
0.90566
0.892358
0.811574
0.697374
0.596801
0.50888
0.457295
0.421932
0.444642
0.472868
0.527372
0.614969
0.705485
0.808655
0.894304
0.954
0.973141
0.983523
0.962111
0.850506
0.746688
0.640599
0.552029
0.501093
0.494605
0.507582
0.552029
0.609778
0.689913
0.789513
0.887167
0.963733
1.026673
1.047761
1.053276
0.993581
0.875163
0.767452
0.666878
0.587717
0.544243
0.548136
0.564682
0.601343
0.674015
0.75415
0.848235
0.924801
0.974115
0.994229
1.013695
1.001042
0.914744
0.801193
0.691859
0.593881
0.537754
0.496876
0.508555
0.53451
0.582201
0.666229
0.754474
0.853751
0.928045
0.986119
0.993256
1.003314
0.974439
0.864781
0.764532
0.659092
0.565655
0.510826
0.4972
0.504013
0.552029
0.606209
0.691859
0.786593
0.890087
0.951404
1.005909
1.016615
1.021806
0.957244
0.838827
0.729169
0.626973
0.553327
0.511475
0.527372
0.548136
0.586419
0.658767
0.736955
0.833636
0.904686
0.955622
0.97671
0.9965
0.975088
0.878407
0.764207
0.651305
0.558842
0.509204
0.472868
0.487792
0.507582
0.551056
0.629568
0.715867
0.810926
0.881003
0.928694
0.931939
0.927397
0.894953
0.770047
0.656172
0.546838
0.447887
0.386893
0.36613
0.368076
0.412199
0.467028
0.540674
0.634435
0.71976
0.772643
0.820983
0.829094
0.83688
0.769398
0.647736
0.539701
0.435558
0.362237
0.319736
0.326225
0.349259
0.396626
0.477734
0.56598
0.664931
0.74539
0.795677
0.824227
0.840449
0.817739
0.717165
0.601992
0.48325
0.381054
0.310652
0.256796
0.260041
0.271396
0.310003
0.385596
0.473841
0.563709
0.638328
0.683748
0.69413
0.695428
0.662011
0.542945
0.441398
0.340175
0.258419
0.207483
0.197101
0.210078
0.257445
0.327522
0.414795
0.516991
0.616591
0.684073
0.75123
0.768101
0.783024
0.71976
0.619511
0.517315
0.431341
0.363534
0.334336
0.359317
0.386245
0.434585
0.51472
0.610427
0.710352
0.797299
0.854399
0.887816
0.916041
0.907282
0.815792
0.714245
0.616915
0.535483
0.487467
0.459242
0.483574
0.518937
0.5689
0.655523
0.749284
0.847911
0.92837
0.98255
0.993581
1.00234
0.975737
0.863159
0.760639
0.659416
0.577984
0.532888
0.520559
0.53743
0.58869
0.650656
0.728195
0.821956
0.917664
0.974439
1.026024
1.036406
1.043543
0.966653
0.849208
0.737604
0.636706
0.562087
0.523479
0.532888
0.553327
0.601667
0.677909
0.76291
0.85959
0.936805
0.979306
1.003638
1.017588
1.00234
0.902415
0.791784
0.683748
0.596476
0.542296
0.499796
0.520884
0.542296
0.601667
0.678233
0.768425
0.859266
0.942969
0.999096
1.007531
1.010451
0.980928
0.873216
0.761288
0.657145
0.562087
0.508231
0.493307
0.507258
0.543269
0.610102
0.689913
0.791135
0.885545
0.947836
0.995852
1.004287
1.004611
0.9394
0.827796
0.722031
0.624053
0.549109
0.504987
0.515693
0.544243
0.587392
0.663309
0.752852
0.861861
0.943618
0.991958
1.019535
1.041596
1.031215
0.931614
0.826174
0.725276
0.638004
0.589663
0.552029
0.575388
0.604263
0.666553
0.753501
0.854724
0.954973
1.039974
1.099994
1.114594
1.126598
1.100319
1.003638
0.905335
0.809628
0.733386
0.697699
0.701268
0.730467
0.786918
0.868674
0.967302
1.088963
1.207381
1.293031
1.370895
1.420533
1.458816
1.415342
1.330016
1.233984
1.149957
1.083773
1.04549
1.055547
1.079231
1.117838
1.185644
1.252801
1.334558
1.396525
1.42183
1.429617
1.42475
1.388414
1.275836
1.160338
1.044841
0.947511
0.884247
0.835907
0.83688
0.849208
0.89982
0.976386
1.069822
1.152876
1.219385
1.257019
1.263508
1.261237
1.228145
1.103887
0.99131
0.882949
0.783998
0.726249
0.70873
0.720085
0.758043
0.83104
0.912148
1.013046
1.102914
1.166503
1.212572
1.215816
1.215167
1.138602
1.020508
0.89398
0.789513
0.711001
0.656821
0.656496
0.670122
0.688939
0.754474
0.833636
0.915717
0.978657
1.013371
1.024077
1.020833
0.982225
0.861537
0.734684
0.610102
0.507582
0.436856
0.388191
0.394031
0.408955
0.460864
0.529968
0.614969
0.695103
0.759341
0.796651
0.801841
0.791784
0.756745
0.63411
0.529319
0.419337
0.329794
0.279507
0.267178
0.279507
0.322656
0.392084
0.467028
0.562735
0.65163
0.709054
0.75707
0.769723
0.772318
0.692184
0.576037
0.461837
0.365157
0.29443
0.257121
0.269449
0.301244
0.338878
0.419012
0.498822
0.59161
0.661038
0.709378
0.740199
0.753501
0.744093
0.645465
0.544243
0.431665
0.346664
0.292159
0.265556
0.283075
0.309354
0.375538
0.454051
0.556571
0.65455
0.730467
0.776211
0.78562
0.779131
0.749608
0.636706
0.531914
0.425176
0.342771
0.296377
0.288915
0.30027
0.346015
0.414795
0.491685
0.589663
0.680828
0.736955
0.78854
0.80541
0.815143
0.741497
0.628919
0.516666
0.424852
0.365805
0.330767
0.344069
0.375863
0.413821
0.494605
0.584472
0.6831
0.760639
0.813197
0.836556
0.853751
0.83688
0.739226
0.643519
0.538403
0.459566
0.412524
0.389164
0.405386
0.435234
0.497849
0.576686
0.67726
0.775887
0.844666
0.893331
0.900144
0.889114
0.858617
0.753501
0.663309
0.56306
0.48033
0.437505
0.433936
0.442371
0.490712
0.562735
0.647412
0.749932
0.840124
0.897873
0.941023
0.963733
0.960813
0.878083
0.760963
0.647088
0.547163
0.477734
0.440749
0.448211
0.482601
0.523155
0.601018
0.682451
0.771994
0.833636
0.876461
0.886518
0.896251
0.86835
0.755448
0.643194
0.525426
0.432314
0.372618
0.334011
0.336607
0.358343
0.410901
0.489738
0.580255
0.66558
0.729818
0.772318
0.77978
0.764856
0.729493
0.608156
0.506933
0.410253
0.322656
0.267178
0.256796
0.265232
0.305461
0.374241
0.448211
0.553327
0.637679
0.69705
0.736955
0.755772
0.750906
0.668176
0.550731
0.435883
0.34342
0.273342
0.241548
0.260041
0.29443
0.334336
0.418688
0.50888
0.614969
0.687317
0.744742
0.771994
0.791135
0.771994
0.667202
0.570846
0.468001
0.390787
0.343744
0.326549
0.337255
0.373267
0.438478
0.526075
0.633786
0.739551
0.82293
0.87419
0.889438
0.88814
0.851155
0.738577
0.638652
0.538079
0.458917
0.410577
0.41447
0.432314
0.482925
0.559491
0.643519
0.753177
0.847262
0.915717
0.964706
0.989039
0.989039
0.911175
0.791784
0.678233
0.587068
0.519262
0.483574
0.496227
0.537105
0.576037
0.666878
0.758043
0.867052
0.947187
1.003314
1.023753
1.039974
1.013371
0.901442
0.797299
0.689264
0.603614
0.553002
0.534834
0.552354
0.591285
0.653252
0.735982
0.832987
0.930316
1.002016
1.051329
1.063982
1.057494
1.015317
0.893331
0.787566
0.678882
0.598098
0.553002
0.560789
0.579281
0.627622
0.711325
0.796326
0.90274
0.987416
1.049058
1.091234
1.111998
1.108105
1.028619
0.91377
0.804112
0.706783
0.640275
0.603614
0.620809
0.656821
0.70289
0.798273
0.899495
1.010451
1.091559
1.146388
1.167151
1.18532
1.164556
1.061062
0.961137
0.868026
0.7827
0.738253
0.723978
0.750581
0.792109
0.864132
0.95108
1.045814
1.139575
1.20803
1.259615
1.265454
1.261561
1.219061
1.102265
0.999745
0.892682
0.812223
0.767776
0.774589
0.787242
0.834285
0.912797
0.997798
1.104212
1.196675
1.255721
1.294653
1.310875
1.301466
1.217763
1.109078
0.998123
0.901442
0.840449
0.803139
0.820659
0.850182
0.887491
0.968275
1.053276
1.147361
1.211923
1.255721
1.263508
1.269996
1.245015
1.134384
1.026997
0.920259
0.832338
0.773616
0.751879
0.766803
0.796002
0.855697
0.937778
1.03089
1.121082
1.186293
1.233336
1.235607
1.222954
1.173965
1.052303
0.940698
0.826498
0.737928
0.688615
0.691859
0.707107
0.749932
0.820659
0.900144
0.997474
1.080204
1.137304
1.176236
1.189862
1.182075
1.087017
0.963408
0.841747
0.738902
0.673367
0.630542
0.650332
0.684397
0.730142
0.812872
0.900793
0.993581
1.064307
1.107132
1.115242
1.121407
1.09383
0.975737
0.861212
0.747337
0.65455
0.595503
0.56598
0.578633
0.609454
0.68018
0.771669
0.870297
0.957244
1.015642
1.067227
1.071769
1.067551
1.018886
0.8969
0.780105
0.666553
0.578633
0.532563
0.533212
0.550083
0.591285
0.66558
0.74539
0.835907
0.917664
0.971195
1.006882
1.026024
1.027321
0.943618
0.824876
0.711974
0.611076
0.552029
0.502067
0.515044
0.543594
0.58869
0.670771
0.759341
0.857319
0.929343
0.978981
0.983199
0.987741
0.956271
0.839151
0.72852
0.621458
0.53451
0.486494
0.466379
0.481952
0.516666
0.575713
0.656496
0.751879
0.841422
0.900469
0.950431
0.949782
0.944591
0.893007
0.781078
0.670771
0.563384
0.47741
0.433612
0.439451
0.459891
0.502067
0.578308
0.663309
0.756097
0.842071
0.896251
0.927721
0.932263
0.929992
0.828769
0.720409
0.60848
0.510177
0.449184
0.404088
0.416741
0.4401
0.491036
0.572468
0.668176
0.757719
0.829743
0.86543
0.871919
0.871919
0.830067
0.707756
0.590961
0.477085
0.387867
0.331416
0.311625
0.3259
0.360939
0.419985
0.50012
0.587392
0.678233
0.7256
0.75999
0.744417
0.724951
0.648061
0.510826
0.381378
0.258419
0.161414
0.099772
0.087768
0.085497
0.110802
0.179257
0.24901
0.330442
0.403764
0.443345
0.467028
0.478059
0.470597
0.370672
0.256796
0.142272
0.048511
-0.008589
-0.049143
-0.028379
0.002118
0.053378
0.141299
0.241548
0.349908
0.43426
0.4972
0.520235
0.539701
0.519262
0.415119
0.317141
0.22046
0.149734
0.111451
0.102691
0.129944
0.182826
0.264258
0.358668
0.467677
0.577984
0.655198
0.719436
0.72852
0.736631
0.688939
0.586419
0.484223
0.38884
0.311625
0.277884
0.294755
0.327847
0.373916
0.462486
0.557869
0.663958
0.758368
0.814494
0.855373
0.873216
0.869323
0.779131
0.675313
0.570522
0.482601
0.425825
0.389164
0.413172
0.446913
0.4972
0.583823
0.684073
0.786269
0.867701
0.915717
0.927072
0.943943
0.917988
0.803139
0.697699
0.591934
0.513422
0.470921
0.458917
0.475139
0.524128
0.594854
0.680828
0.784322
0.885545
0.948485
0.999096
0.998771
0.995527
0.934858
0.82001
0.708405
0.609778
0.523155
0.484872
0.495902
0.514395
0.557869
0.636057
0.723978
0.826823
0.917664
0.970221
1.002989
1.020184
1.002016
0.901118
0.784971
0.670122
0.57701
0.520235
0.480979
0.503689
0.534185
0.58869
0.668825
0.765181
0.857644
0.938427
0.97963
0.989039
0.99131
0.956595
0.841747
0.730791
0.620484
0.536781
0.489414
0.468975
0.488765
0.532888
0.596801
0.68018
0.779456
0.870621
0.922854
0.964382
0.969897
0.961786
0.895278
0.783024
0.676611
0.577984
0.495902
0.456646
0.470921
0.501093
0.542296
0.626648
0.708081
0.806059
0.891385
0.939076
0.969248
0.980928
0.960164
0.858941
0.749608
0.63995
0.546514
0.484223
0.44594
0.47157
0.498174
0.54846
0.628595
0.723653
0.814494
0.890411
0.932587
0.938427
0.940049
0.907931
0.789837
0.681153
0.576686
0.493307
0.44594
0.433287
0.449509
0.497849
0.572144
0.66558
0.770696
0.87127
0.934858
0.990012
1.006558
1.012073
0.966004
0.873541
0.792757
0.724951
0.674664
0.658443
0.696077
0.749932
0.820334
0.915393
1.014669
1.122055
1.21095
1.25929
1.290436
1.29952
1.259939
1.144441
1.011424
0.882625
0.772967
0.69705
0.644492
0.647088
0.660389
0.699646
0.764207
0.850506
0.931614
0.998771
1.036406
1.051978
1.04257
0.998123
0.854075
0.727222
0.600369
0.490712
0.413821
0.377161
0.368401
0.392409
0.441722
0.498822
0.58285
0.657145
0.713596
0.742795
0.733386
0.719436
0.647736
0.521533
0.403439
0.30027
0.217216
0.176013
0.184448
0.214296
0.255174
0.33758
0.424203
0.526075
0.613347
0.6685
0.709378
0.726898
0.706783
0.603614
0.491685
0.383974
0.302866
0.249983
0.222082
0.248686
0.293782
0.351206
0.437829
0.539701
0.644817
0.729169
0.788864
0.803139
0.79957
0.772967
0.65163
0.54846
0.442047
0.361263
0.319412
0.306759
0.327847
0.377161
0.455349
0.545541
0.660065
0.766154
0.83688
0.886194
0.884896
0.882625
0.811899
0.698023
0.583823
0.485521
0.405711
0.373267
0.386893
0.424528
0.469299
0.556896
0.650981
0.758043
0.843693
0.897549
0.933236
0.947511
0.925125
0.81709
0.711325
0.59745
0.512124
0.449833
0.426799
0.448535
0.485196
0.545541
0.641248
0.745066
0.844342
0.920583
0.965355
0.978008
0.970546
0.940049
0.821956
0.716516
0.613347
0.534185
0.489738
0.484547
0.502067
0.554949
0.631515
0.716192
0.822605
0.917988
0.985794
1.03673
1.047436
1.050681
0.981577
0.85667
0.745066
0.651954
0.577335
0.548785
0.566629
0.601018
0.646439
0.73728
0.82812
0.935507
1.024077
1.078582
1.106158
1.122704
1.100967
0.989039
0.877434
0.762261
0.678882
0.622755
0.599396
0.630217
0.675638
0.743768
0.8398
0.940698
1.041596
1.121407
1.172342
1.185644
1.188564
1.166827
1.059765
0.964057
0.872568
0.809628
0.783024
0.803139
0.849857
0.924477
1.008829
1.095452
1.192782
1.273565
1.322554
1.351753
1.339749
1.319959
1.240473
1.112971
0.989687
0.881327
0.799246
0.759665
0.770696
0.803464
0.844018
0.920908
1.007531
1.114918
1.19927
1.251828
1.274863
1.286542
1.251179
1.127895
0.999745
0.875163
0.781078
0.713921
0.675313
0.6831
0.701917
0.746688
0.823578
0.912148
0.99942
1.059116
1.084746
1.076635
1.054249
1.013695
0.87711
0.755772
0.632164
0.540998
0.481952
0.468975
0.487143
0.532888
0.595827
0.674015
0.777185
0.866728
0.927072
0.95984
0.969573
0.958866
0.893331
0.777834
0.670771
0.576037
0.50304
0.471895
0.493307
0.536456
0.593232
0.687966
0.779131
0.88814
0.976386
1.039325
1.070146
1.095777
1.073066
0.964706
0.855048
0.74539
0.665905
0.613347
0.589014
0.608156
0.640275
0.69997
0.784971
0.884247
0.979954
1.052303
1.096101
1.117513
1.111349
1.079231
0.956271
0.844666
0.734684
0.657469
0.604911
0.600369
0.616591
0.663958
0.735009
0.815792
0.919286
1.008829
1.065604
1.098696
1.100319
1.087341
1.013046
0.897224
0.796002
0.698023
0.630866
0.595827
0.609454
0.643194
0.693481
0.787242
0.879381
0.993256
1.075337
1.144441
1.17364
1.19343
1.166827
1.05944
0.947836
0.83396
0.736306
0.682126
0.657794
0.677909
0.713596
0.774914
0.85959
0.957244
1.049058
1.1107
1.152228
1.150605
1.139899
1.102914
0.978657
0.870297
0.767776
0.698672
0.658118
0.660065
0.676286
0.722356
0.792433
0.876461
0.975737
1.063658
1.130491
1.164556
1.169423
1.160663
1.085719
0.95984
0.842395
0.743119
0.664607
0.625026
0.641248
0.67434
0.712298
0.796002
0.882301
0.985794
1.058791
1.113945
1.138277
1.152228
1.128544
1.009478
0.89398
0.777185
0.68829
0.630866
0.606534
0.626648
0.6685
0.730467
0.813845
0.912797
1.003638
1.065929
1.105834
1.106483
1.100319
1.058791
0.937778
0.830067
0.720734
0.647088
0.597125
0.59453
0.607831
0.664607
0.743119
0.829743
0.930641
1.013695
1.067875
1.099994
1.106807
1.093181
1.012722
0.898198
0.78562
0.678882
0.60556
0.563384
0.578957
0.612373
0.653576
0.737928
0.827796
0.927721
1.00234
1.0536
1.07112
1.08507
1.051978
0.937778
0.813845
0.700294
0.615293
0.556896
0.529968
0.546189
0.589339
0.652603
0.736955
0.834609
0.926748
0.986767
1.036081
1.036081
1.020833
0.97963
0.856022
0.747013
0.637679
0.562735
0.516666
0.513746
0.524128
0.575713
0.646114
0.734035
0.829418
0.919935
0.972817
1.00818
1.018562
1.010775
0.929992
0.813197
0.695103
0.59161
0.520235
0.488765
0.512773
0.544567
0.58285
0.66558
0.752528
0.851804
0.924152
0.978657
0.996176
1.010775
0.979306
0.864457
0.747337
0.634435
0.54846
0.496876
0.47449
0.48617
0.522506
0.585121
0.670122
0.77394
0.870297
0.931614
0.974115
0.972168
0.961462
0.916366
0.795677
0.686993
0.577659
0.491685
0.447238
0.441074
0.463459
0.521857
0.600694
0.687642
0.787242
0.874514
0.921557
0.953027
0.965031
0.952702
0.872568
0.758692
0.641572
0.539701
0.472868
0.42907
0.443993
0.475463
0.515368
0.599072
0.687317
0.792109
0.873216
0.932587
0.944591
0.952702
0.920908
0.80249
0.686668
0.573442
0.482925
0.42615
0.406359
0.426799
0.459242
0.518937
0.606209
0.705161
0.798597
0.863159
0.909877
0.90566
0.894953
0.849533
0.727222
0.615942
0.5118
0.42907
0.379432
0.378134
0.3976
0.455349
0.529319
0.617889
0.715867
0.799895
0.857644
0.887816
0.888789
0.872568
0.786269
0.667527
0.546838
0.440425
0.363859
0.310328
0.320385
0.349908
0.383649
0.470921
0.567926
0.670122
0.75123
0.800219
0.813845
0.819361
0.782376
0.66558
0.552678
0.436207
0.342771
0.286644
0.258094
0.274316
0.300595
0.364183
0.446264
0.538079
0.631839
0.691859
0.732738
0.730791
0.713272
0.664607
0.533537
0.422581
0.317465
0.239926
0.192883
0.193532
0.208456
0.255499
0.334336
0.416741
0.516666
0.605236
0.662985
0.698023
0.701268
0.691535
0.604263
0.492334
0.381054
0.285671
0.222731
0.18607
0.213647
0.248037
0.297026
0.383325
0.48325
0.588365
0.671744
0.723978
0.745066
0.762261
0.728195
0.619186
0.510502
0.415119
0.330118
0.287293
0.269774
0.297026
0.333038
0.402466
0.487143
0.586419
0.682126
0.749932
0.803139
0.810601
0.80833
0.764532
0.648061
0.536132
0.431989
0.355424
0.315519
0.327847
0.354126
0.413172
0.500769
0.600694
0.709054
0.805086
0.861537
0.895927
0.899171
0.894953
0.807357
0.693806
0.58285
0.488441
0.424528
0.388516
0.412199
0.451455
0.501093
0.590961
0.691859
0.796002
0.879056
0.929019
0.950431
0.964057
0.933236
0.810277
0.697374
0.584472
0.497525
0.448211
0.433936
0.463135
0.504662
0.582526
0.667202
0.769074
0.862186
0.92545
0.964382
0.961137
0.951729
0.899171
0.788215
0.6831
0.586094
0.511151
0.479681
0.489414
0.511151
0.560789
0.639301
0.728844
0.829418
0.923503
0.984496
1.032512
1.040948
1.038677
0.944591
0.832338
0.721058
0.618213
0.555922
0.516666
0.538079
0.569873
0.617889
0.700294
0.800868
0.895602
0.980603
1.028619
1.044192
1.051329
1.014669
0.89398
0.778807
0.668176
0.581877
0.530292
0.509853
0.535808
0.5689
0.630866
0.716192
0.813197
0.901118
0.96276
1.005585
1.000069
0.993581
0.936805
0.817739
0.70581
0.606534
0.530617
0.489089
0.493631
0.518613
0.55722
0.634759
0.717814
0.812223
0.904686
0.963084
1.005909
1.017588
1.013046
0.921881
0.812548
0.702241
0.618862
0.558842
0.526723
0.545541
0.577335
0.63119
0.713596
0.811574
0.911499
0.994554
1.041272
1.064307
1.063658
1.032512
0.900469
0.789189
0.678557
0.59161
0.544243
0.529643
0.556247
0.59161
0.65163
0.734684
0.837205
0.924477
0.979954
1.020833
1.019535
1.009153
0.951404
0.835258
0.717814
0.617564
0.539701
0.50012
0.501742
0.52867
0.576037
0.658767
0.747337
0.846937
0.93129
0.98839
1.015966
1.014344
1.003962
0.91377
0.801841
0.68829
0.599721
0.536132
0.504338
0.524452
0.555273
0.610751
0.697374
0.801193
0.898847
0.989039
1.036406
1.058142
1.064307
1.035108
0.909553
0.799895
0.693806
0.610751
0.564358
0.554949
0.586094
0.635084
0.710676
0.797624
0.908255
0.997474
1.063009
1.106483
1.111349
1.106807
1.052627
0.936156
0.825201
0.73144
0.661687
0.630217
0.642221
0.674989
0.723978
0.815143
0.910202
1.018237
1.102265
1.152876
1.177858
1.181751
1.168125
1.08215
0.974439
0.869972
0.781078
0.719436
0.683748
0.706783
0.737604
0.784971
0.873541
0.968599
1.067551
1.155472
1.206083
1.231389
1.236904
1.205434
1.078906
0.969897
0.863159
0.779456
0.734035
0.721382
0.747986
0.795677
0.865754
0.943618
1.051329
1.13925
1.205759
1.245664
1.246637
1.241446
1.179804
1.066253
0.944267
0.842395
0.763559
0.733062
0.750257
0.786918
0.838827
0.929019
1.015966
1.116216
1.207705
1.267401
1.300493
1.305684
1.283298
1.18532
1.07112
0.952053
0.85148
0.783349
0.744093
0.765505
0.795677
0.84564
0.930316
1.024402
1.115242
1.192457
1.233984
1.244366
1.240149
1.203812
1.075662
0.957569
0.847262
0.764207
0.713921
0.698997
0.714245
0.761612
0.829094
0.909877
1.010775
1.089937
1.14217
1.178507
1.183049
1.173316
1.11946
1.004611
0.900469
0.80249
0.718787
0.682126
0.691535
0.723005
0.762585
0.845964
0.927072
1.031215
1.115242
1.17656
1.201541
1.211274
1.189213
1.088639
0.969248
0.848884
0.750257
0.682775
0.647088
0.666553
0.703863
0.75707
0.849857
0.946214
1.039974
1.120758
1.160663
1.172991
1.175587
1.135682
1.010127
0.897873
0.783349
0.698672
0.646439
0.637355
0.648385
0.700943
0.771669
0.856995
0.962111
1.046138
1.100319
1.133411
1.127571
1.111998
1.052627
0.934534
0.823254
0.721058
0.643194
0.604911
0.616915
0.653576
0.700619
0.78562
0.86835
0.975737
1.059116
1.114594
1.141846
1.151579
1.128544
1.028295
0.912797
0.798597
0.701268
0.636057
0.603938
0.618862
0.655847
0.710352
0.801841
0.898522
0.995527
1.084421
1.133086
1.149308
1.147037
1.111349
0.985145
0.871594
0.758692
0.679531
0.622431
0.615293
0.632488
0.689588
0.75999
0.847262
0.954
1.04549
1.099345
1.141197
1.144117
1.133086
1.073715
0.951404
0.839151
0.734035
0.658443
0.62016
0.63411
0.660065
0.709703
0.79438
0.883598
0.989039
1.073715
1.130491
1.152876
1.168774
1.147361
1.045814
0.927397
0.811574
0.714894
0.650332
0.619835
0.636381
0.67142
0.720409
0.815143
0.911824
1.007531
1.091234
1.141846
1.156121
1.147686
1.113945
0.985794
0.880354
0.771345
0.69413
0.647088
0.651305
0.669149
0.721707
0.792433
0.87127
0.976386
1.05944
1.114594
1.149957
1.149957
1.138277
1.076959
0.950431
0.835582
0.737928
0.660389
0.623404
0.634435
0.666229
0.711974
0.798273
0.885869
0.993581
1.074364
1.134708
1.163907
1.174289
1.147361
1.043543
0.927721
0.808979
0.713921
0.652927
0.624053
0.647088
0.688615
0.741497
0.835907
0.933561
1.028944
1.101941
1.154174
1.166827
1.169423
1.128544
1.003638
0.889762
0.781727
0.701592
0.650981
0.638977
0.656821
0.711001
0.778807
0.868674
0.969248
1.053276
1.112971
1.142495
1.147361
1.138277
1.074688
0.958542
0.855048
0.755448
0.682775
0.641248
0.659092
0.689264
0.736306
0.818063
0.900144
0.998447
1.079555
1.133411
1.152876
1.161961
1.131464
1.026024
0.902091
0.788215
0.691535
0.638977
0.614644
0.639301
0.681153
0.735009
0.824876
0.920259
1.018562
1.089612
1.137304
1.148334
1.143792
1.097074
0.966977
0.854399
0.749284
0.670122
0.620809
0.618213
0.636381
0.686993
0.757394
0.839151
0.937129
1.019535
1.072742
1.10259
1.101616
1.092532
1.023753
0.900469
0.787566
0.682451
0.606858
0.570197
0.586094
0.615618
0.659416
0.740524
0.830067
0.931614
1.009478
1.057818
1.075662
1.083773
1.051978
0.944916
0.819036
0.706459
0.603614
0.539052
0.512448
0.533212
0.571495
0.621458
0.700619
0.790162
0.886194
0.958542
1.009153
1.013371
1.006882
0.955622
0.819036
0.700619
0.585121
0.504662
0.460864
0.455349
0.467028
0.517315
0.592259
0.683748
0.784322
0.868026
0.920583
0.950756
0.950756
0.936481
0.858617
0.734684
0.618538
0.512773
0.4401
0.400844
0.416741
0.449184
0.496551
0.57993
0.663958
0.763234
0.8398
0.890087
0.903713
0.915393
0.883598
0.770696
0.654874
0.539701
0.440749
0.370023
0.341149
0.355099
0.38884
0.443669
0.530941
0.619511
0.713596
0.781078
0.829418
0.829094
0.820983
0.775887
0.638977
0.52867
0.417066
0.328171
0.270098
0.256148
0.263285
0.307732
0.373267
0.464757
0.573766
0.656821
0.710027
0.740199
0.729493
0.713921
0.634435
0.511475
0.396626
0.293457
0.224029
0.182826
0.198723
0.232788
0.279182
0.358343
0.451455
0.547487
0.625351
0.67434
0.688939
0.693157
0.666553
0.555922
0.440425
0.3259
0.224029
0.166929
0.136108
0.156223
0.189639
0.252903
0.341797
0.438154
0.536781
0.607507
0.654874
0.661363
0.661038
0.612698
0.485196
0.370672
0.263609
0.184124
0.136757
0.141948
0.157196
0.213971
0.286644
0.371645
0.474814
0.565331
0.617889
0.658443
0.648061
0.638004
0.558518
0.439127
0.326549
0.234086
0.178933
0.14941
0.169849
0.213323
0.271071
0.364183
0.467677
0.581552
0.670771
0.725924
0.745066
0.755772
0.728195
0.62308
0.513422
0.411226
0.322656
0.268476
0.250308
0.276262
0.315843
0.389164
0.479356
0.581552
0.684073
0.756421
0.813845
0.820334
0.818387
0.780753
0.668825
0.567277
0.465081
0.39468
0.352504
0.358992
0.385271
0.445616
0.526075
0.620484
0.729493
0.824876
0.878732
0.920908
0.926423
0.923503
0.847911
0.737928
0.626
0.53159
0.472219
0.439127
0.459242
0.50012
0.55722
0.644168
0.744742
0.844018
0.927072
0.987416
1.010775
1.026673
0.998771
0.889114
0.7827
0.675962
0.587392
0.535808
0.509853
0.534834
0.572793
0.643519
0.733711
0.838827
0.944591
1.021157
1.081826
1.09383
1.094479
1.047112
0.915393
0.800219
0.689913
0.604587
0.555598
0.56014
0.581552
0.633137
0.717814
0.819361
0.926099
1.01402
1.063658
1.09675
1.096425
1.084746
1.000718
0.881652
0.765181
0.666878
0.601343
0.560464
0.577335
0.609454
0.660714
0.748635
0.845964
0.950107
1.030566
1.087666
1.101941
1.110052
1.074688
0.962111
0.843693
0.735982
0.635408
0.581552
0.5543
0.576362
0.612698
0.673042
0.761612
0.860564
0.957893
1.02797
1.078582
1.084421
1.077284
1.029268
0.906308
0.785944
0.681477
0.604911
0.556247
0.558193
0.581228
0.632813
0.706783
0.791784
0.892358
0.984496
1.038677
1.071444
1.077284
1.064956
0.977359
0.861212
0.740848
0.644817
0.580904
0.542296
0.563384
0.602316
0.650656
0.736955
0.82812
0.926748
1.007207
1.055223
1.070471
1.072742
1.04257
0.931939
0.817414
0.715543
0.624053
0.572793
0.553002
0.573117
0.605236
0.670447
0.75123
0.853751
0.941671
1.013695
1.065929
1.077284
1.075662
1.029592
0.908904
0.798597
0.695103
0.620484
0.584797
0.586094
0.615293
0.663634
0.742146
0.831365
0.932912
1.017588
1.063982
1.095452
1.102914
1.095777
1.0111
0.897549
0.780105
0.684722
0.616267
0.581228
0.598423
0.633461
0.68018
0.767452
0.864132
0.962435
1.046138
1.095777
1.109403
1.114594
1.082799
0.963408
0.845964
0.736631
0.644168
0.583823
0.556571
0.578633
0.611076
0.681802
0.763883
0.861212
0.954
1.021482
1.068524
1.069498
1.053925
1.003314
0.878083
0.772967
0.674989
0.598423
0.553327
0.557544
0.57993
0.632813
0.717489
0.804437
0.910526
1.000394
1.049058
1.077608
1.082475
1.072417
0.981901
0.865106
0.744742
0.64871
0.583175
0.550407
0.572793
0.606858
0.658767
0.746039
0.844018
0.943943
1.032188
1.084746
1.109403
1.115891
1.086044
0.95692
0.843693
0.733386
0.638004
0.583499
0.564033
0.589014
0.62308
0.688615
0.773291
0.876461
0.968599
1.039974
1.086044
1.092532
1.082799
1.032837
0.905011
0.790486
0.686344
0.605885
0.567277
0.570846
0.59453
0.64579
0.72852
0.816441
0.917988
1.002989
1.051005
1.082799
1.082475
1.07404
0.987092
0.869972
0.75415
0.663309
0.600369
0.563384
0.585121
0.619835
0.67434
0.762585
0.860888
0.960813
1.043867
1.091559
1.109403
1.115242
1.088315
0.968275
0.851804
0.745066
0.658767
0.605885
0.597774
0.621133
0.656821
0.726898
0.811574
0.916366
1.01402
1.080528
1.133735
1.143144
1.141521
1.086044
0.963084
0.849208
0.74831
0.67142
0.635408
0.643519
0.669473
0.719436
0.798273
0.890087
0.989039
1.074364
1.127571
1.155148
1.156121
1.148983
1.0682
0.953675
0.838827
0.74831
0.685695
0.648061
0.668176
0.707756
0.760963
0.857319
0.960164
1.058467
1.143468
1.189862
1.205434
1.208354
1.176884
1.051329
0.943618
0.831365
0.740524
0.685046
0.669473
0.700294
0.741497
0.806384
0.886843
0.982874
1.074688
1.144766
1.189537
1.201217
1.187591
1.129842
1.005585
0.886843
0.77978
0.698997
0.662985
0.6685
0.693157
0.733062
0.819685
0.89982
1.004611
1.078906
1.125624
1.146063
1.144441
1.126598
1.033486
0.911499
0.789189
0.691535
0.625351
0.583499
0.599721
0.630217
0.681153
0.766154
0.857644
0.956271
1.032837
1.079879
1.093505
1.095452
1.064307
0.93421
0.815792
0.701268
0.607183
0.549758
0.531914
0.548785
0.589339
0.651954
0.729169
0.826498
0.91669
0.976386
1.022131
1.01986
1.010127
0.938103
0.813521
0.696726
0.592259
0.512124
0.475788
0.480979
0.503689
0.538727
0.62016
0.697374
0.803788
0.881003
0.929343
0.950107
0.954649
0.935832
0.835907
0.718463
0.597125
0.498498
0.429718
0.385271
0.399871
0.436207
0.489738
0.575388
0.661038
0.757719
0.836556
0.880678
0.893656
0.890411
0.860564
0.740199
0.627946
0.509853
0.412848
0.353153
0.338878
0.357695
0.398897
0.462162
0.538727
0.635732
0.721058
0.780429
0.823903
0.824227
0.815792
0.74831
0.621133
0.499796
0.394031
0.310976
0.268152
0.273991
0.300595
0.341797
0.424203
0.505635
0.6114
0.694779
0.74539
0.769723
0.769398
0.749608
0.656821
0.543269
0.430043
0.336607
0.280804
0.244468
0.262961
0.297026
0.350882
0.438478
0.535159
0.632813
0.711325
0.75707
0.764856
0.770696
0.744417
0.630217
0.527372
0.421608
0.334984
0.282102
0.269125
0.291186
0.343095
0.412524
0.499147
0.608156
0.710352
0.775887
0.823903
0.829094
0.828445
0.774265
0.655523
0.544243
0.444318
0.372943
0.338878
0.358343
0.390138
0.439127
0.523155
0.606209
0.713596
0.794704
0.853751
0.882625
0.903064
0.892033
0.803788
0.695428
0.583499
0.499796
0.443669
0.412848
0.436856
0.473841
0.535808
0.635732
0.740524
0.851804
0.937454
0.990985
1.011424
1.022779
0.995527
0.875812
0.776536
0.67434
0.597125
0.546189
0.54846
0.5689
0.635408
0.708081
0.805086
0.915068
1.015317
1.081177
1.137628
1.153201
1.162285
1.114594
1.007531
0.911499
0.825849
0.768749
0.744417
0.77978
0.827796
0.893656
0.998447
1.10778
1.233336
1.337478
1.420533
1.469197
1.501965
1.493854
1.411124
1.315417
1.213221
1.127571
1.083124
1.057169
1.08215
1.117189
1.174289
1.265454
1.355646
1.454274
1.528893
1.571393
1.575935
1.572042
1.531813
1.40204
1.288165
1.17656
1.082475
1.022131
1.006558
1.014669
1.062684
1.11946
1.197972
1.293031
1.379979
1.430266
1.466278
1.459789
1.443567
1.369597
1.237878
1.117838
1.00526
0.917339
0.873865
0.884572
0.91085
0.950107
1.034783
1.102914
1.198621
1.263508
1.306008
1.320932
1.328394
1.297249
1.195701
1.079879
0.964057
0.869648
0.804112
0.770696
0.78854
0.82001
0.866403
0.955622
1.051654
1.15093
1.222954
1.265779
1.270645
1.261886
1.224576
1.099021
0.980603
0.869323
0.780105
0.724627
0.713921
0.725276
0.772967
0.8398
0.924801
1.021806
1.107132
1.16488
1.204461
1.204786
1.200892
1.118811
0.989039
0.875812
0.770047
0.694779
0.651305
0.662011
0.69121
0.735009
0.810926
0.894953
0.989687
1.065929
1.115567
1.133086
1.146712
1.118487
1.015317
0.896575
0.778482
0.685695
0.628919
0.595503
0.622431
0.654874
0.709378
0.796651
0.885545
0.98547
1.055547
1.10259
1.103887
1.09675
1.059116
0.936481
0.820334
0.711649
0.617889
0.565006
0.549434
0.561438
0.607183
0.672069
0.756745
0.856346
0.951729
1.021482
1.077933
1.083448
1.075986
0.986767
0.856022
0.735009
0.633137
0.562087
0.52575
0.545541
0.577984
0.628271
0.706134
0.790811
0.893656
0.968924
1.012722
1.029917
1.038028
1.010451
0.902091
0.77686
0.664282
0.569873
0.518613
0.484547
0.50596
0.538403
0.59745
0.696401
0.796975
0.899495
0.98255
1.034135
1.03965
1.030566
0.990336
0.869648
0.75123
0.644168
0.552354
0.499796
0.498498
0.512448
0.565006
0.631839
0.719436
0.822281
0.917015
0.975088
1.021806
1.023753
1.021806
0.936481
0.808655
0.692832
0.59161
0.517964
0.476437
0.495254
0.529968
0.578957
0.663958
0.753177
0.85148
0.928694
0.979306
0.997798
1.007531
0.977683
0.867052
0.747986
0.63119
0.541647
0.494929
0.468326
0.490387
0.523479
0.598747
0.692184
0.790162
0.88814
0.960489
1.00818
1.009802
1.004936
0.957893
0.835258
0.723978
0.616591
0.537105
0.493307
0.496227
0.509853
0.564358
0.63119
0.718463
0.819685
0.918637
0.98255
1.032512
1.036406
1.034783
0.950431
0.819685
0.710027
0.606858
0.543269
0.50304
0.518613
0.554949
0.608805
0.692832
0.787566
0.884247
0.963733
1.010775
1.020833
1.026024
1.000069
0.897873
0.785944
0.681802
0.600045
0.551705
0.524452
0.546514
0.57993
0.641897
0.730467
0.832662
0.92545
1.00234
1.054898
1.063658
1.061711
1.026024
0.900144
0.789513
0.682126
0.595179
0.547487
0.546514
0.563709
0.61432
0.687966
0.772967
0.871919
0.968599
1.022779
1.065604
1.070795
1.070795
0.987741
0.869323
0.756421
0.657469
0.588041
0.552678
0.575388
0.612049
0.662985
0.743768
0.834285
0.93421
1.008829
1.057494
1.077933
1.078257
1.055547
0.944591
0.825201
0.713921
0.624053
0.568251
0.54846
0.576686
0.609778
0.681802
0.764532
0.867052
0.960164
1.033161
1.080204
1.083124
1.077284
1.035108
0.91377
0.801193
0.690237
0.601343
0.553327
0.556247
0.584148
0.644817
0.714245
0.793731
0.88814
0.978332
1.032512
1.076311
1.088963
1.094479
1.010775
0.89106
0.770047
0.673691
0.60264
0.567602
0.586743
0.624053
0.667527
0.749284
0.84272
0.943618
1.017913
1.068524
1.081826
1.092857
1.063982
0.951729
0.836231
0.72852
0.641248
0.590961
0.565655
0.587068
0.621133
0.689264
0.774589
0.874514
0.969248
1.042894
1.095128
1.091559
1.083773
1.03673
0.916366
0.799246
0.686993
0.600369
0.555598
0.556896
0.583499
0.641248
0.720734
0.805735
0.904686
0.993581
1.047761
1.088639
1.098048
1.090261
0.999096
0.876785
0.755123
0.659416
0.588365
0.551705
0.573442
0.611725
0.652927
0.735333
0.820659
0.922854
1.000394
1.049383
1.067227
1.085719
1.060738
0.953027
0.83688
0.730791
0.642221
0.595503
0.572793
0.58577
0.619186
0.692508
0.776536
0.880029
0.97671
1.048085
1.09383
1.090586
1.081177
1.034783
0.913446
0.800544
0.693806
0.606858
0.559167
0.557869
0.583175
0.631839
0.709054
0.800544
0.897549
0.990012
1.040948
1.078257
1.091883
1.080528
0.988065
0.86835
0.744417
0.650332
0.586094
0.547163
0.568251
0.608805
0.652603
0.742795
0.830716
0.929019
1.004611
1.044841
1.0536
1.060413
1.027646
0.917664
0.806708
0.701268
0.61724
0.5689
0.545216
0.563384
0.598747
0.664607
0.755448
0.86251
0.963084
1.037054
1.079879
1.078906
1.066902
1.025699
0.898198
0.77978
0.677584
0.58869
0.540998
0.541972
0.558842
0.613671
0.703214
0.788215
0.887816
0.977035
1.039001
1.075337
1.083124
1.071444
0.981901
0.86251
0.743119
0.644168
0.575713
0.542621
0.562087
0.607831
0.646439
0.734684
0.824227
0.927072
1.002016
1.046787
1.062036
1.066578
1.034135
0.91669
0.80833
0.694455
0.613996
0.56306
0.541647
0.561762
0.593881
0.662336
0.746688
0.851804
0.946214
1.020184
1.061711
1.059116
1.043219
0.992283
0.872892
0.75999
0.662011
0.590961
0.546189
0.550407
0.569548
0.620809
0.708405
0.792109
0.895602
0.981577
1.041596
1.081177
1.095452
1.08799
0.995852
0.873865
0.75123
0.653576
0.585121
0.55138
0.5689
0.609454
0.657469
0.744742
0.836231
0.930641
1.003314
1.043219
1.060413
1.072417
1.044192
0.924152
0.814494
0.700943
0.621458
0.563709
0.544243
0.566953
0.600694
0.668176
0.749284
0.85959
0.957893
1.029917
1.074364
1.069822
1.05944
1.007207
0.880029
0.768749
0.659416
0.573766
0.531914
0.538079
0.566304
0.615293
0.696726
0.778807
0.881327
0.966004
1.022455
1.056845
1.061062
1.0536
0.957569
0.841747
0.727547
0.633137
0.5689
0.533212
0.55138
0.589339
0.636706
0.723329
0.81417
0.910202
0.987741
1.027321
1.037703
1.048734
1.016615
0.89398
0.780429
0.667202
0.584797
0.532563
0.517639
0.546514
0.578633
0.64871
0.731764
0.832662
0.927721
0.994878
1.042245
1.044192
1.02797
0.972492
0.851804
0.72852
0.627297
0.539052
0.493956
0.500445
0.524452
0.572468
0.656496
0.741822
0.846289
0.930641
0.983848
1.018237
1.021806
1.012398
0.912797
0.791784
0.671096
0.571495
0.503364
0.468001
0.488441
0.525426
0.57701
0.666229
0.764856
0.857319
0.927397
0.965031
0.967302
0.96795
0.941671
0.824227
0.714569
0.605236
0.51991
0.476112
0.464108
0.496551
0.532888
0.605236
0.697374
0.799895
0.893007
0.960813
1.006558
1.009802
0.99942
0.938427
0.815792
0.700619
0.592908
0.507906
0.460539
0.464757
0.493631
0.539701
0.62308
0.703214
0.808979
0.891385
0.946538
0.973141
0.984496
0.97087
0.874514
0.752528
0.634759
0.537754
0.475463
0.439127
0.457295
0.496876
0.548136
0.63995
0.732738
0.827472
0.899171
0.937778
0.949782
0.949458
0.921232
0.802815
0.699321
0.594854
0.510826
0.455349
0.441074
0.46281
0.50304
0.56306
0.643843
0.747661
0.847911
0.91085
0.954973
0.958542
0.951729
0.890087
0.761936
0.64579
0.536456
0.457944
0.418363
0.430043
0.460864
0.512124
0.593556
0.676286
0.780429
0.864781
0.917664
0.943294
0.950107
0.930316
0.826174
0.703539
0.584148
0.495902
0.438803
0.404737
0.424528
0.465081
0.512448
0.609778
0.706134
0.80249
0.874514
0.916041
0.920583
0.921557
0.890087
0.772318
0.664282
0.550731
0.471895
0.418363
0.409928
0.434909
0.483574
0.557869
0.652927
0.762585
0.863159
0.930316
0.97379
0.977035
0.971195
0.912473
0.793731
0.686668
0.581228
0.500445
0.461837
0.471246
0.500769
0.542621
0.627297
0.71684
0.81709
0.90566
0.959191
0.984172
0.988714
0.963733
0.856346
0.736955
0.618213
0.52867
0.471895
0.439127
0.461188
0.494605
0.546189
0.63703
0.73144
0.827147
0.890087
0.927072
0.928045
0.917015
0.879381
0.753501
0.640923
0.526723
0.440425
0.384622
0.366454
0.379432
0.42907
0.496227
0.57701
0.676286
0.764856
0.825201
0.869323
0.863808
0.858617
0.793731
0.66558
0.545541
0.435234
0.351855
0.313248
0.333038
0.373592
0.429394
0.516017
0.601018
0.702241
0.783024
0.835907
0.867052
0.881003
0.857319
0.750581
0.632488
0.514395
0.424852
0.368401
0.338229
0.366454
0.404737
0.461513
0.552678
0.651954
0.749932
0.82293
0.867701
0.871919
0.870621
0.83396
0.711974
0.59745
0.484547
0.402791
0.354775
0.34634
0.366779
0.428421
0.496876
0.584797
0.680504
0.783673
0.842071
0.89982
0.903389
0.89398
0.837853
0.71976
0.612698
0.510502
0.431341
0.393707
0.415768
0.448211
0.500445
0.584472
0.674015
0.780105
0.868026
0.922206
0.952702
0.980279
0.957893
0.854399
0.740524
0.630542
0.546838
0.49428
0.463135
0.487467
0.532239
0.59453
0.694455
0.796975
0.901442
0.974115
1.015966
1.015966
1.015966
0.987416
0.875487
0.773616
0.667851
0.589663
0.544567
0.533861
0.553327
0.610102
0.682126
0.777185
0.882949
0.980279
1.037379
1.084097
1.084097
1.072417
1.008504
0.887491
0.783024
0.683748
0.605885
0.56598
0.584797
0.626324
0.675962
0.758368
0.846613
0.953027
1.040948
1.098696
1.128869
1.151254
1.117513
1.014993
0.887491
0.772318
0.681802
0.629568
0.596476
0.627946
0.66558
0.721707
0.812223
0.90274
1.004287
1.0682
1.111998
1.11362
1.111349
1.083773
0.968599
0.856995
0.750906
0.669473
0.622755
0.61724
0.63411
0.690237
0.760314
0.854724
0.960164
1.056845
1.117189
1.161961
1.162609
1.152228
1.082799
0.952702
0.841747
0.744417
0.661038
0.61724
0.632488
0.66558
0.713921
0.797299
0.881003
0.985145
1.067551
1.124651
1.149632
1.164556
1.131464
1.022455
0.901118
0.784647
0.688615
0.63703
0.607183
0.635732
0.676286
0.724627
0.813197
0.904362
0.998447
1.073391
1.109403
1.115242
1.111998
1.073715
0.951729
0.835258
0.727222
0.65163
0.607507
0.602316
0.619835
0.668176
0.74247
0.832338
0.938427
1.030241
1.08799
1.12822
1.1253
1.115891
1.043867
0.917664
0.803139
0.703214
0.624053
0.58285
0.60264
0.634759
0.682126
0.759665
0.84564
0.943943
1.033161
1.080528
1.116216
1.128869
1.104212
1.001367
0.881003
0.764856
0.670122
0.624702
0.599396
0.62308
0.654225
0.718463
0.80249
0.902415
0.994554
1.063658
1.102265
1.104212
1.098696
1.053925
0.926423
0.806059
0.69997
0.613347
0.571495
0.56306
0.583175
0.637679
0.714245
0.812223
0.917988
1.017264
1.073715
1.115567
1.109727
1.103887
1.026348
0.902415
0.783998
0.68018
0.599721
0.562087
0.575713
0.604263
0.656496
0.736955
0.824876
0.926099
1.012398
1.060089
1.086692
1.101616
1.07112
0.954973
0.835258
0.722031
0.631839
0.577335
0.552678
0.575713
0.606858
0.660389
0.745715
0.837529
0.936481
1.000069
1.044516
1.054249
1.059765
1.030566
0.905011
0.787566
0.678882
0.596476
0.551705
0.553327
0.573117
0.628595
0.703539
0.792109
0.892682
0.980279
1.040299
1.074688
1.0682
1.059116
0.976386
0.856346
0.737928
0.638977
0.563384
0.524777
0.545216
0.575064
0.628919
0.707107
0.805086
0.905335
0.992607
1.041921
1.069173
1.085395
1.053276
0.940049
0.82001
0.710027
0.61432
0.561438
0.531914
0.554949
0.586743
0.656496
0.736955
0.833636
0.925774
0.992607
1.032512
1.027646
1.020833
0.981901
0.859915
0.744417
0.633137
0.560464
0.517964
0.516991
0.532563
0.582526
0.660065
0.745066
0.843044
0.93421
0.99131
1.02797
1.026673
1.01402
0.92545
0.798597
0.68018
0.575713
0.498822
0.46281
0.489738
0.527048
0.575388
0.656172
0.739226
0.838178
0.920259
0.977683
1.006558
1.018237
0.986443
0.869323
0.750581
0.634759
0.540998
0.481303
0.460864
0.481303
0.516342
0.586743
0.670122
0.770372
0.862186
0.923503
0.963084
0.955298
0.940049
0.900793
0.775563
0.667851
0.561438
0.48325
0.442371
0.444642
0.466704
0.522181
0.598098
0.682126
0.7827
0.868026
0.925774
0.959515
0.961786
0.952702
0.864132
0.744417
0.625351
0.526399
0.452753
0.420959
0.434909
0.475139
0.520884
0.610427
0.70289
0.807357
0.887816
0.943294
0.966004
0.977359
0.947187
0.830391
0.716192
0.601018
0.512448
0.46281
0.438478
0.461513
0.50012
0.571171
0.661363
0.765181
0.856995
0.92545
0.96795
0.976386
0.961786
0.911499
0.786269
0.669149
0.569873
0.493956
0.456322
0.453078
0.473841
0.52867
0.610102
0.695103
0.800544
0.893007
0.954649
0.993256
0.998771
0.986119
0.898522
0.783349
0.666229
0.564033
0.491685
0.453402
0.469624
0.503689
0.547163
0.635732
0.726898
0.830067
0.911175
0.966977
0.994554
1.010127
0.981901
0.860888
0.743119
0.631839
0.543269
0.492009
0.475463
0.498822
0.54035
0.611076
0.700943
0.804112
0.8969
0.963084
1.007207
1.011424
0.998447
0.957244
0.836231
0.723653
0.62016
0.540674
0.497849
0.496227
0.513746
0.567926
0.653576
0.73436
0.83688
0.933236
0.997149
1.044516
1.056845
1.055547
0.966004
0.853751
0.735009
0.638977
0.571495
0.543594
0.564033
0.606858
0.651305
0.743444
0.837853
0.933236
1.017588
1.063658
1.081826
1.09091
1.06236
0.943943
0.830716
0.717814
0.630866
0.577984
0.557869
0.585121
0.62308
0.692832
0.780429
0.88522
0.97379
1.042894
1.08507
1.083448
1.073715
1.029592
0.91085
0.800219
0.696077
0.614969
0.569224
0.566629
0.583823
0.638328
0.721382
0.815792
0.927397
1.01986
1.076311
1.110376
1.11362
1.107456
1.019211
0.904037
0.791135
0.68829
0.612373
0.576686
0.596801
0.634759
0.675962
0.757719
0.847911
0.949133
1.027321
1.076311
1.085395
1.091234
1.057169
0.926099
0.808655
0.696401
0.621782
0.572468
0.553976
0.575388
0.6114
0.678557
0.767776
0.871919
0.961462
1.024077
1.064631
1.065929
1.049707
1.00818
0.882949
0.774265
0.66558
0.589339
0.545541
0.548785
0.571171
0.630542
0.720085
0.807357
0.911499
0.996825
1.057169
1.086044
1.094479
1.080204
0.992607
0.886518
0.774914
0.683748
0.613671
0.578633
0.598423
0.639301
0.681477
0.766803
0.862835
0.965031
1.047436
1.099345
1.117838
1.127895
1.098048
0.970221
0.859266
0.74539
0.659092
0.604263
0.585446
0.605236
0.640923
0.711325
0.801517
0.902415
0.993256
1.056845
1.097074
1.095777
1.075013
1.023428
0.896251
0.779456
0.672069
0.593556
0.553327
0.560464
0.586743
0.64287
0.735657
0.825525
0.929992
1.017264
1.073715
1.095777
1.101941
1.094479
0.999096
0.876136
0.752528
0.649359
0.575713
0.532563
0.552678
0.594854
0.649034
0.75707
0.855697
0.96276
1.040623
1.087017
1.101616
1.107456
1.071769
0.94816
0.834285
0.723978
0.639626
0.588041
0.568575
0.593556
0.626324
0.695103
0.779131
0.886194
0.973466
1.037703
1.075013
1.080853
1.065929
1.013695
0.885545
0.773291
0.668825
0.588041
0.543918
0.546189
0.5689
0.613022
0.70581
0.791135
0.899171
0.984821
1.036406
1.061062
1.061711
1.049058
0.954973
0.832987
0.714569
0.629893
0.56306
0.525101
0.546189
0.580579
0.628595
0.712947
0.80541
0.902415
0.983199
1.030566
1.044841
1.051978
1.017913
0.889438
0.771994
0.658118
0.571171
0.511475
0.496876
0.526075
0.56598
0.638652
0.732738
0.838502
0.930965
0.997474
1.035757
1.032837
1.020833
0.964706
0.841422
0.728844
0.619186
0.539701
0.504662
0.512124
0.54035
0.593556
0.680504
0.767127
0.866728
0.953351
1.007856
1.030566
1.033161
1.015966
0.923503
0.805735
0.692832
0.587068
0.527372
0.488116
0.512124
0.547487
0.593881
0.683748
0.781727
0.881976
0.963084
1.015317
1.028295
1.035757
0.991958
0.868674
0.749608
0.638004
0.551056
0.4972
0.487143
0.515368
0.565006
0.630217
0.722031
0.826823
0.920908
0.966977
1.007207
1.002665
0.989363
0.937778
0.820334
0.710676
0.607183
0.529319
0.483574
0.492334
0.513746
0.561113
0.643843
0.733386
0.841422
0.928045
0.986767
1.019535
1.02505
1.008829
0.91669
0.801841
0.686668
0.585121
0.519586
0.481952
0.504662
0.540674
0.590312
0.682126
0.775887
0.882949
0.963084
1.00818
1.023428
1.02797
0.994878
0.867701
0.756097
0.644492
0.562087
0.510502
0.498822
0.51472
0.567926
0.634759
0.722031
0.825849
0.915717
0.97379
1.017264
1.016291
1.013695
0.955298
0.835258
0.723978
0.61432
0.540998
0.499796
0.519586
0.549109
0.599072
0.682775
0.775563
0.877434
0.961462
1.017588
1.03965
1.045814
1.016615
0.918637
0.796326
0.680504
0.586094
0.523479
0.488441
0.509529
0.550731
0.610751
0.70873
0.811899
0.923503
1.010451
1.053276
1.064307
1.064631
1.023753
0.8969
0.781727
0.669149
0.589014
0.533212
0.527372
0.542296
0.598098
0.664931
0.750257
0.850182
0.941347
0.995203
1.040299
1.035432
1.024726
0.969248
0.839151
0.726898
0.616915
0.538079
0.495902
0.503364
0.53159
0.587392
0.683748
0.781402
0.886518
0.966653
1.022455
1.043543
1.052952
1.028295
0.927721
0.81125
0.698023
0.597125
0.534834
0.495254
0.518937
0.55722
0.612373
0.70289
0.79957
0.901766
0.981252
1.034783
1.042894
1.044516
1.005909
0.87711
0.763559
0.65163
0.566304
0.516666
0.506284
0.523804
0.576686
0.642221
0.728844
0.825525
0.917988
0.98255
1.03089
1.035432
1.022131
0.950756
0.829743
0.711649
0.612049
0.535808
0.494929
0.506284
0.540674
0.596476
0.690561
0.784322
0.888789
0.976386
1.024726
1.0536
1.057169
1.032512
0.93421
0.813521
0.701268
0.601667
0.544567
0.503689
0.529319
0.562411
0.613671
0.696077
0.792109
0.89106
0.972492
1.028295
1.045814
1.053925
1.014993
0.890736
0.773291
0.659092
0.571819
0.516991
0.504013
0.518613
0.579281
0.650332
0.739226
0.843044
0.941671
1.002016
1.043219
1.039974
1.032837
0.966004
0.841747
0.728195
0.624702
0.550407
0.510502
0.520884
0.549758
0.602316
0.687317
0.771345
0.87419
0.958866
1.012722
1.035757
1.044841
1.016615
0.915068
0.793731
0.685046
0.58577
0.531914
0.500445
0.527697
0.564033
0.618862
0.704512
0.803139
0.898847
0.976061
1.023428
1.035432
1.032837
0.987416
0.864781
0.748959
0.643843
0.559167
0.510826
0.499796
0.523155
0.58285
0.655198
0.741497
0.840449
0.930641
0.978008
1.017913
1.012722
1.00526
0.936805
0.817739
0.703863
0.599396
0.527697
0.488116
0.498498
0.520559
0.571171
0.655523
0.740199
0.844666
0.933885
0.990985
1.022455
1.037379
1.00818
0.903389
0.787891
0.677584
0.583823
0.518613
0.492658
0.51472
0.5543
0.609129
0.699321
0.799895
0.895278
0.974764
1.022131
1.022779
1.018886
0.976061
0.846613
0.732738
0.62308
0.538727
0.500445
0.497525
0.52283
0.581552
0.652603
0.74247
0.841098
0.930965
0.984821
1.017913
1.018562
1.010775
0.938752
0.822281
0.707107
0.604587
0.529968
0.487143
0.502067
0.535483
0.586419
0.682775
0.779456
0.884247
0.967626
1.01402
1.039974
1.051329
1.021806
0.914744
0.796002
0.681802
0.588365
0.520884
0.492658
0.518937
0.561113
0.619186
0.708081
0.803788
0.905335
0.980928
1.028619
1.029592
1.021806
0.982874
0.865754
0.754799
0.651305
0.564033
0.520235
0.514395
0.53451
0.589014
0.669798
0.755772
0.858293
0.941996
0.997798
1.035108
1.033486
1.027321
0.946538
0.826174
0.708081
0.607507
0.533537
0.496227
0.510177
0.549109
0.602965
0.68829
0.779456
0.880678
0.963084
1.005909
1.034135
1.039974
1.015642
0.905984
0.789513
0.672718
0.574739
0.521208
0.48617
0.512448
0.550731
0.615293
0.701592
0.801193
0.901766
0.979306
1.027646
1.037703
1.036081
0.984496
0.858941
0.742795
0.632813
0.550731
0.509529
0.504662
0.528346
0.577335
0.655198
0.743768
0.851155
0.941671
0.9965
1.02797
1.023753
1.013046
0.933236
0.816441
0.698672
0.601343
0.532563
0.498822
0.519586
0.559167
0.609778
0.698997
0.792757
0.893656
0.975412
1.028295
1.049707
1.056196
1.032512
0.919286
0.801193
0.689264
0.594205
0.53451
0.505635
0.528346
0.559491
0.627622
0.711325
0.81417
0.906633
0.984496
1.036081
1.049058
1.04549
0.998447
0.87127
0.760639
0.657469
0.576362
0.535808
0.530617
0.551705
0.599396
0.677584
0.760963
0.868674
0.95984
1.016615
1.050681
1.050681
1.043219
0.964706
0.846937
0.735009
0.637679
0.569873
0.536456
0.55722
0.590961
0.640599
0.723978
0.810926
0.907931
0.99131
1.050356
1.078906
1.094479
1.073066
0.961137
0.846937
0.733062
0.637679
0.581877
0.553976
0.57701
0.607507
0.673691
0.754474
0.856346
0.956271
1.034783
1.084746
1.100643
1.09967
1.056196
0.929019
0.81125
0.704188
0.622431
0.575713
0.579606
0.595827
0.646114
0.732413
0.822281
0.931939
1.016291
1.067551
1.098372
1.095452
1.087341
1.007856
0.885545
0.773616
0.678233
0.613996
0.584797
0.603938
0.645465
0.692184
0.778807
0.872892
0.969573
1.051654
1.108754
1.127571
1.140873
1.111674
0.999745
0.88522
0.775887
0.685046
0.626324
0.606858
0.632488
0.669149
0.732738
0.818712
0.920908
1.011424
1.087666
1.135033
1.144117
1.138926
1.098372
0.968924
0.855697
0.743768
0.669473
0.624053
0.628919
0.652279
0.702565
0.782376
0.862186
0.966977
1.047436
1.103563
1.135682
1.144117
1.13114
1.050681
0.932263
0.810277
0.708081
0.638004
0.604263
0.620484
0.660389
0.707107
0.793731
0.889114
0.99131
1.07112
1.122055
1.142819
1.145739
1.114269
0.999745
0.883274
0.770696
0.678233
0.626648
0.609454
0.621133
0.657469
0.723005
0.79957
0.898198
0.988714
1.058467
1.106158
1.112323
1.108754
1.063982
0.933885
0.823903
0.716192
0.640923
0.594205
0.599721
0.622106
0.672718
0.747337
0.831689
0.933236
1.01694
1.064956
1.090586
1.095777
1.079555
0.99131
0.872243
0.75415
0.660714
0.590312
0.5543
0.570846
0.610427
0.652603
0.740848
0.832338
0.932912
1.010127
1.060738
1.076959
1.090261
1.062684
0.941996
0.83396
0.718463
0.625675
0.565006
0.542621
0.555273
0.591285
0.656496
0.743444
0.842071
0.932263
1.00526
1.046787
1.053925
1.046787
1.006233
0.884896
0.77394
0.664607
0.582526
0.535483
0.537105
0.555273
0.603938
0.685371
0.768425
0.864132
0.942969
0.995527
1.020184
1.023104
1.009478
0.924801
0.809952
0.699321
0.612049
0.548136
0.516991
0.532888
0.574739
0.614969
0.700619
0.791784
0.890736
0.965355
1.012073
1.025699
1.031215
1.003638
0.884247
0.776536
0.675638
0.589014
0.536132
0.516991
0.533212
0.565006
0.631839
0.713921
0.816441
0.911175
0.981252
1.030566
1.033161
1.032188
0.980928
0.85148
0.738253
0.630866
0.552678
0.503364
0.509204
0.535159
0.585121
0.667527
0.75415
0.854399
0.933885
0.982874
1.006233
1.011424
0.999745
0.913122
0.795353
0.681477
0.59453
0.536132
0.4972
0.515044
0.553976
0.59453
0.690237
0.783998
0.883598
0.964382
1.012398
1.026024
1.034783
1.003638
0.886843
0.771994
0.662336
0.571819
0.513422
0.497849
0.521533
0.553651
0.616267
0.704188
0.79957
0.894953
0.960813
1.00234
1.014344
1.008829
0.961137
0.843044
0.750581
0.652279
0.576686
0.531914
0.539376
0.562087
0.612698
0.694455
0.775563
0.878407
0.960164
1.011749
1.039974
1.049383
1.038677
0.950756
0.833311
0.717165
0.618862
0.560464
0.520235
0.53451
0.56598
0.607507
0.695752
0.787566
0.891709
0.978657
1.03965
1.067227
1.084746
1.051005
0.929668
0.816116
0.70581
0.61724
0.559167
0.546514
0.572144
0.607507
0.671744
0.75999
0.856346
0.955622
1.021806
1.072742
1.075662
1.064307
1.013371
0.887816
0.773616
0.672069
0.602316
0.558842
0.564033
0.584148
0.627622
0.706459
0.792109
0.898522
0.977683
1.038352
1.068524
1.075986
1.068849
0.983523
0.866079
0.750257
0.653252
0.591285
0.553651
0.570846
0.605885
0.655847
0.753177
0.845315
0.949133
1.025375
1.073715
1.087017
1.094154
1.062684
0.94232
0.828445
0.71976
0.628595
0.569873
0.555598
0.576686
0.6114
0.6685
0.752203
0.847586
0.951729
1.023753
1.077284
1.086044
1.086044
1.026348
0.90566
0.797948
0.696401
0.624053
0.582526
0.585446
0.606534
0.652603
0.73436
0.821307
0.925125
1.005585
1.057494
1.077933
1.079879
1.064631
0.972817
0.854724
0.735333
0.639301
0.580904
0.543269
0.566629
0.604263
0.658118
0.746039
0.842395
0.938752
1.021806
1.0682
1.080853
1.089612
1.057169
0.93421
0.821956
0.716516
0.630217
0.575713
0.558193
0.582526
0.626
0.683424
0.773291
0.868026
0.966004
1.028619
1.083448
1.083773
1.080853
1.013695
0.889438
0.770696
0.672393
0.592908
0.549434
0.56306
0.583823
0.626
0.706134
0.791784
0.89398
0.977359
1.037379
1.068849
1.078906
1.058791
0.967626
0.844991
0.729169
0.630542
0.570846
0.53159
0.559491
0.600694
0.660389
0.749608
0.842395
0.944591
1.023428
1.070471
1.080204
1.080528
1.048734
0.929992
0.815792
0.707432
0.612698
0.560464
0.545541
0.559491
0.608156
0.672069
0.755448
0.850831
0.946862
1.009802
1.063333
1.07112
1.070471
1.004611
0.879705
0.763559
0.66266
0.584797
0.538403
0.554949
0.580579
0.629893
0.708081
0.793082
0.893007
0.974764
1.027321
1.046463
1.052952
1.035108
0.940374
0.824876
0.709703
0.614644
0.558518
0.519262
0.543594
0.571495
0.631839
0.717814
0.815468
0.904037
0.976061
1.011749
1.014344
1.012398
0.987092
0.883598
0.783673
0.685371
0.599721
0.5543
0.540998
0.556896
0.613347
0.67434
0.757719
0.853751
0.945889
1.004936
1.054574
1.060413
1.055871
0.986443
0.864781
0.747661
0.64579
0.565331
0.518937
0.53159
0.55722
0.60556
0.689913
0.7827
0.889114
0.97379
1.021482
1.040948
1.050356
1.028619
0.937778
0.81709
0.707432
0.607507
0.554949
0.517639
0.539376
0.569224
0.630217
0.720409
0.822281
0.919935
0.997149
1.04841
1.053925
1.055223
1.018886
0.89982
0.784971
0.681153
0.586743
0.53451
0.521208
0.535483
0.590637
0.653252
0.736631
0.834285
0.929668
0.985794
1.040948
1.051329
1.050356
0.984172
0.863808
0.746039
0.63995
0.560464
0.518288
0.530292
0.558842
0.609778
0.698672
0.787242
0.891385
0.97379
1.017588
1.040299
1.054898
1.033161
0.930316
0.815143
0.700943
0.609778
0.554949
0.519586
0.545216
0.580579
0.635408
0.722031
0.820983
0.914095
0.993905
1.039974
1.047436
1.043543
1.016615
0.896575
0.777834
0.677584
0.590312
0.536456
0.523804
0.541647
0.598098
0.664282
0.747661
0.849533
0.943618
0.99942
1.049383
1.045165
1.048734
0.968599
0.844991
0.725276
0.627946
0.55722
0.522506
0.538079
0.564682
0.613347
0.698023
0.79146
0.893007
0.971195
1.009802
1.030241
1.036406
1.007856
0.901442
0.793731
0.69121
0.612698
0.563384
0.531266
0.549109
0.576362
0.637355
0.726898
0.82293
0.921557
1.001367
1.044516
1.051329
1.049383
1.013695
0.89106
0.772318
0.667202
0.573442
0.52283
0.512773
0.529643
0.587068
0.666878
0.754799
0.852453
0.943943
1.001367
1.052627
1.053925
1.056196
0.973141
0.852777
0.732738
0.633137
0.556896
0.522181
0.538727
0.571171
0.617889
0.698997
0.783673
0.881652
0.955946
0.99942
1.025375
1.038352
1.022455
0.920583
0.815468
0.697374
0.604587
0.55138
0.515693
0.538403
0.571819
0.630542
0.723329
0.82293
0.930965
1.012722
1.055223
1.058791
1.054249
1.013695
0.894953
0.783349
0.675638
0.58577
0.53743
0.529643
0.543918
0.591934
0.663634
0.746688
0.844342
0.935832
1.000394
1.049707
1.05944
1.067551
0.985794
0.860888
0.742795
0.643194
0.565006
0.526723
0.544567
0.581877
0.626324
0.706459
0.795028
0.897549
0.976061
1.014344
1.034459
1.042894
1.017913
0.910202
0.798597
0.688615
0.603289
0.551056
0.516666
0.535483
0.565655
0.622431
0.711001
0.808006
0.904037
0.986119
1.037054
1.048085
1.046138
1.007207
0.890411
0.781402
0.672718
0.579606
0.532563
0.52575
0.544892
0.592908
0.668825
0.750581
0.854724
0.945565
1.000394
1.046463
1.053276
1.048085
0.966004
0.838178
0.723329
0.625351
0.555273
0.515044
0.530941
0.564033
0.610427
0.696077
0.781402
0.884247
0.958542
1.005585
1.025375
1.02797
1.006882
0.899171
0.78562
0.67434
0.590637
0.541647
0.510502
0.530941
0.565655
0.624702
0.713272
0.821307
0.917988
0.999096
1.042894
1.055547
1.041272
1.001691
0.871594
0.757719
0.649683
0.556571
0.508555
0.502716
0.532563
0.593232
0.675313
0.758692
0.864457
0.952053
1.011749
1.052627
1.057169
1.054249
0.968924
0.846613
0.726249
0.624702
0.550407
0.511475
0.528346
0.562411
0.61432
0.703539
0.793082
0.892682
0.968924
1.017913
1.039325
1.040948
1.019211
0.904362
0.794055
0.680828
0.590961
0.536781
0.514395
0.533212
0.56598
0.627622
0.716516
0.819361
0.915717
0.991634
1.036081
1.039974
1.031539
0.994229
0.864781
0.753177
0.63995
0.550731
0.494929
0.492009
0.514071
0.570197
0.652927
0.738253
0.849208
0.938103
1.001042
1.046463
1.056845
1.048085
0.960489
0.843693
0.721707
0.622431
0.553651
0.518937
0.530292
0.567602
0.610427
0.695103
0.781078
0.883923
0.952053
0.997798
1.015317
1.023428
0.995527
0.886194
0.775563
0.665256
0.578957
0.525101
0.506609
0.533212
0.574739
0.645465
0.738577
0.832987
0.923828
0.998771
1.042245
1.044516
1.036081
0.999096
0.872568
0.761936
0.655847
0.573442
0.522181
0.517639
0.536456
0.584797
0.665256
0.744742
0.849533
0.940049
0.999745
1.038028
1.053276
1.043867
0.953351
0.835582
0.713596
0.61432
0.544892
0.510826
0.528346
0.564358
0.608156
0.691535
0.781727
0.885869
0.955298
1.003962
1.022455
1.02797
0.995852
0.876785
0.768425
0.666878
0.588365
0.541972
0.520884
0.537754
0.57993
0.650656
0.737604
0.837205
0.934534
1.011424
1.054249
1.052952
1.040299
0.997798
0.872243
0.765505
0.661363
0.575388
0.529968
0.528021
0.545865
0.600369
0.674015
0.758692
0.858941
0.947836
1.007531
1.050356
1.070146
1.061062
0.97379
0.854399
0.73436
0.632813
0.56014
0.519586
0.53743
0.580904
0.625351
0.71976
0.810601
0.918637
0.992283
1.043867
1.061062
1.066578
1.037054
0.922206
0.808655
0.693806
0.613347
0.560789
0.538403
0.549109
0.587392
0.65974
0.746039
0.853102
0.945889
1.020833
1.068524
1.075986
1.055871
1.013371
0.886843
0.779131
0.674664
0.590961
0.548136
0.552029
0.572144
0.621782
0.701592
0.787242
0.889762
0.980603
1.043543
1.076959
1.090261
1.078582
0.994878
0.87711
0.76291
0.660714
0.594854
0.561438
0.582526
0.619511
0.664282
0.754799
0.845964
0.945565
1.018562
1.067551
1.072742
1.081502
1.049058
0.934534
0.820659
0.712947
0.636706
0.593881
0.575064
0.59161
0.622755
0.689588
0.783024
0.888789
0.987092
1.051329
1.100319
1.106807
1.09091
1.042245
0.914419
0.806059
0.705161
0.629568
0.581228
0.59161
0.6114
0.665905
0.744742
0.829094
0.932587
1.02797
1.095128
1.132437
1.139575
1.121731
1.035432
0.911824
0.803139
0.706134
0.644168
0.605885
0.621458
0.652927
0.69413
0.782376
0.870945
0.971195
1.0536
1.111674
1.132113
1.140548
1.112323
0.997474
0.883598
0.769398
0.686668
0.636706
0.618538
0.636057
0.67142
0.744417
0.835907
0.935507
1.031863
1.099021
1.148983
1.153201
1.139899
1.095777
0.97087
0.865106
0.75707
0.672393
0.629244
0.634759
0.654874
0.706134
0.786593
0.872892
0.974439
1.066578
1.124651
1.160338
1.167151
1.162285
1.067875
0.948485
0.834285
0.736306
0.675638
0.640599
0.66266
0.695752
0.738253
0.82812
0.918961
1.01694
1.092857
1.137628
1.149632
1.164556
1.137628
1.018237
0.903713
0.793406
0.709703
0.663634
0.656496
0.689588
0.726573
0.798597
0.887816
0.984172
1.085395
1.160338
1.212247
1.21387
1.203488
1.15093
1.032512
0.922206
0.817414
0.735009
0.696401
0.710027
0.73436
0.784971
0.866728
0.954
1.054249
1.146388
1.204461
1.245015
1.256046
1.247611
1.15385
1.037054
0.922206
0.822281
0.762585
0.732413
0.754799
0.798597
0.846613
0.933561
1.026673
1.129517
1.198621
1.245664
1.25053
1.257668
1.231389
1.116216
1.010127
0.895278
0.807681
0.755123
0.732089
0.752852
0.788215
0.86251
0.950756
1.045165
1.137953
1.197648
1.238526
1.237229
1.223927
1.157419
1.035108
0.913122
0.806059
0.718138
0.672718
0.678233
0.698672
0.74831
0.83104
0.918312
1.013046
1.096101
1.147686
