1.231389
1.077608
0.928694
0.796651
0.699321
0.659092
0.668176
0.715867
0.827796
0.971195
1.12238
1.268374
1.388738
1.458167
1.466602
1.428968
1.331963
1.186293
1.031539
0.885869
0.764207
0.681802
0.660065
0.682126
0.753177
0.880029
1.034459
1.186942
1.320608
1.422804
1.467575
1.460113
1.406907
1.287516
1.138926
0.985794
0.840773
0.725276
0.662985
0.66266
0.702241
0.798922
0.934534
1.085719
1.232362
1.355971
1.440647
1.465629
1.445189
1.371868
1.240149
1.084097
0.932263
0.798922
0.698997
0.660389
0.671096
0.723653
0.838827
0.981252
1.130491
1.272916
1.390685
1.451678
1.460762
1.425724
1.32223
1.178507
1.021157
0.870621
0.746688
0.663958
0.646114
0.680828
0.766803
0.902415
1.051005
1.198297
1.326772
1.42767
1.468549
1.461411
1.406582
1.288165
1.143792
0.992283
0.84856
0.733062
0.670122
0.664282
0.700619
0.796326
0.932263
1.082799
1.22782
1.349807
1.431563
1.455571
1.43351
1.359864
1.231389
1.079879
0.930316
0.79957
0.700294
0.660714
0.670122
0.723005
0.838827
0.984496
1.134059
1.274863
1.387765
1.449732
1.456545
1.420857
1.32223
1.181426
1.027646
0.879381
0.757719
0.676286
0.655523
0.68018
0.755772
0.882949
1.033161
1.183698
1.315417
1.418262
1.460762
1.452003
1.395876
1.272916
1.124002
0.964057
0.818712
0.713921
0.65455
0.650007
0.690561
0.799246
0.941023
1.092208
1.238526
1.358891
1.438701
1.468549
1.455571
1.384521
1.25053
1.088963
0.930965
0.790486
0.686668
0.643519
0.653901
0.714894
0.849857
1.009153
1.162285
1.300493
1.411773
1.472442
1.479255
1.442594
1.341371
1.199595
1.045165
0.895602
0.77102
0.68829
0.667202
0.691859
0.766154
0.89398
1.043543
1.192457
1.324501
1.426372
1.466602
1.458816
1.404635
1.283298
1.132762
0.978332
0.835582
0.721058
0.660065
0.658443
0.703539
0.80541
0.943294
1.094154
1.240149
1.362459
1.444541
1.468549
1.446487
1.371543
1.237878
1.081502
0.932263
0.798273
0.699321
0.661038
0.673691
0.729169
0.845964
0.99131
1.139575
1.277783
1.389712
1.45038
1.457193
1.420857
1.325474
1.188564
1.035432
0.884572
0.758368
0.675313
0.653252
0.677584
0.752528
0.883274
1.03673
1.192133
1.32807
1.431239
1.473091
1.463682
1.408204
1.285245
1.131788
0.974764
0.828445
0.711649
0.647736
0.639626
0.679206
0.787891
0.933885
1.092532
1.243069
1.370246
1.454274
1.476984
1.453625
1.375761
1.241446
1.08507
0.933885
0.800544
0.699646
0.65974
0.669149
0.722356
0.838502
0.984172
1.133411
1.273241
1.386143
1.445838
1.448758
1.413395
1.318337
1.181426
1.026024
0.876461
0.753177
0.672069
0.652603
0.67726
0.752852
0.881327
1.03089
1.179155
1.309901
1.409826
1.450056
1.44227
1.39036
1.268699
1.116865
0.962111
0.818387
0.70289
0.641572
0.638652
0.681802
0.783024
0.926099
1.084746
1.231389
1.348509
1.423453
1.441621
1.415342
1.334234
1.203163
1.055547
0.910202
0.788215
0.701592
0.669149
0.682451
0.737928
0.85148
0.992932
1.138926
1.275187
1.386467
1.444541
1.449732
1.41372
1.312497
1.169098
1.012722
0.863159
0.739551
0.660389
0.640599
0.665256
0.740199
0.86835
1.018886
1.168449
1.300493
1.397822
1.439999
1.428968
1.37349
1.252801
1.10259
0.949782
0.80833
0.695752
0.63995
0.638328
0.675962
0.774265
0.912148
1.065929
1.21387
1.335856
1.415017
1.435132
1.410151
1.331314
1.198297
1.04549
0.900144
0.767776
0.6685
0.630542
0.64287
0.697374
0.815143
0.960489
1.110052
1.251179
1.362784
1.421506
1.427995
1.39036
1.288813
1.146712
0.989363
0.842071
0.719436
0.639301
0.621782
0.650981
0.73144
0.861537
1.010775
1.157743
1.289462
1.390685
1.431888
1.423777
1.369272
1.244691
1.091559
0.935183
0.790486
0.675313
0.621133
0.626648
0.668825
0.764856
0.905984
1.058791
1.207381
1.33618
1.421506
1.445838
1.423453
1.345264
1.212247
1.05652
0.905984
0.774265
0.674664
0.632488
0.639301
0.690561
0.804437
0.948809
1.098048
1.248259
1.368624
1.43351
1.449732
1.419559
1.318012
1.173316
1.014993
0.864781
0.740199
0.662336
0.643194
0.668825
0.74539
0.875487
1.025699
1.17364
1.304062
1.401716
1.440972
1.431888
1.380303
1.256695
1.106158
0.956595
0.814494
0.701917
0.646439
0.64579
0.686019
0.787566
0.926099
1.078257
1.224251
1.346887
1.42767
1.449732
1.426048
1.346562
1.215816
1.061711
0.911824
0.784322
0.68018
0.642221
0.652603
0.708405
0.825849
0.974439
1.127895
1.271943
1.389387
1.452327
1.45914
1.422155
1.322554
1.180778
1.026024
0.878083
0.75707
0.677909
0.658118
0.682451
0.762585
0.897873
1.052627
1.200892
1.334234
1.437403
1.480553
1.471793
1.416315
1.295626
1.14509
0.991958
0.849533
0.738253
0.680828
0.678233
0.716192
0.81417
0.950756
1.103887
1.251828
1.378357
1.464655
1.491259
1.469522
1.389712
1.25637
1.100967
0.947836
0.816765
0.722031
0.686993
0.697699
0.75415
0.873541
1.022131
1.174613
1.314443
1.42767
1.488663
1.494828
1.454274
1.354024
1.209328
1.0536
0.905335
0.782051
0.701917
0.682451
0.707107
0.783998
0.913446
1.068524
1.224576
1.357593
1.454922
1.494179
1.48477
1.428319
1.305684
1.154499
1.001042
0.858941
0.746039
0.686019
0.683748
0.723978
0.825849
0.963733
1.117189
1.268699
1.395551
1.477633
1.49937
1.472766
1.392307
1.257019
1.09967
0.946538
0.810926
0.709703
0.670122
0.677909
0.733711
0.861537
1.017588
1.172342
1.314443
1.43351
1.495801
1.502938
1.463682
1.359864
1.215492
1.060413
0.910202
0.786593
0.706459
0.689588
0.71684
0.795353
0.930316
1.081826
1.229767
1.357917
1.454922
1.491583
1.480228
1.421506
1.29952
1.149632
0.999096
0.860239
0.749284
0.695752
0.694455
0.733386
0.83396
0.972492
1.123029
1.269023
1.391658
1.472117
1.492232
1.467575
1.388089
1.25345
1.095128
0.942969
0.809952
0.711974
0.675638
0.69705
0.762261
0.883923
1.030566
1.17948
1.318337
1.428968
1.48769
1.492557
1.452003
1.347211
1.206083
1.053276
0.905984
0.782376
0.705485
0.690886
0.720409
0.802815
0.933236
1.084097
1.231713
1.363108
1.460762
1.497747
1.48769
1.428968
1.304062
1.14801
0.992283
0.849857
0.736631
0.682451
0.688615
0.740199
0.84856
0.990012
1.140548
1.284596
1.410151
1.491583
1.512347
1.486717
1.40496
1.270321
1.114918
0.962435
0.829418
0.732738
0.698023
0.711001
0.767776
0.89106
1.040623
1.189862
1.328718
1.439674
1.497099
1.500992
1.461735
1.35662
1.213221
1.058142
0.911824
0.790811
0.712298
0.69413
0.719111
0.798273
0.92837
1.079231
1.232362
1.367975
1.465629
1.503263
1.494503
1.436754
1.31347
1.161312
1.002665
0.863808
0.752528
0.699646
0.704836
0.748959
0.850831
0.990661
1.141197
1.286542
1.406907
1.484446
1.503263
1.477633
1.396849
1.26221
1.103238
0.953351
0.819685
0.722031
0.685695
0.696726
0.750581
0.865106
1.0111
1.166503
1.309253
1.42183
1.481526
1.492557
1.459789
1.357268
1.21387
1.061711
0.914744
0.795028
0.723329
0.710676
0.736955
0.813521
0.941347
1.089612
1.234958
1.361811
1.457193
1.495476
1.484121
1.423777
1.298222
1.143144
0.987416
0.844018
0.738902
0.689264
0.690561
0.730467
0.835258
0.982225
1.13633
1.280054
1.39912
1.474064
1.491908
1.466278
1.384196
1.249233
1.092532
0.940698
0.808655
0.711001
0.676611
0.69121
0.749932
0.869972
1.016615
1.166178
1.305359
1.417937
1.475037
1.476659
1.435132
1.328718
1.183698
1.028295
0.880678
0.759341
0.685046
0.668825
0.697374
0.777834
0.908255
1.059116
1.206408
1.334883
1.430266
1.466278
1.454598
1.397822
1.274214
1.12238
0.96795
0.826174
0.713596
0.657794
0.666229
0.71684
0.821632
0.962111
1.112647
1.256695
1.375761
1.451354
1.4679
1.440972
1.360513
1.225549
1.069822
0.917664
0.786593
0.689264
0.652603
0.664607
0.716192
0.830067
0.976386
1.132762
1.276809
1.402689
1.480553
1.494503
1.453949
1.343642
1.19343
1.032837
0.882625
0.761936
0.686344
0.670122
0.697699
0.778482
0.909553
1.063009
1.21095
1.339749
1.434483
1.469197
1.456545
1.397498
1.272267
1.120109
0.966328
0.825849
0.715218
0.65974
0.65974
0.701917
0.807032
0.94816
1.099994
1.245664
1.367001
1.444541
1.46206
1.434483
1.352078
1.222305
1.066578
0.915717
0.785295
0.690561
0.657469
0.672718
0.732089
0.851804
0.999096
1.148334
1.287516
1.397498
1.4533
1.454598
1.413395
1.306657
1.163583
1.008829
0.861861
0.742146
0.666553
0.652279
0.681477
0.76291
0.895278
1.04841
1.197972
1.32807
1.42475
1.460438
1.446812
1.386467
1.263832
1.109727
0.955622
0.814819
0.70581
0.647736
0.64871
0.700294
0.808979
0.94816
1.098372
1.241122
1.358566
1.435132
1.452651
1.42475
1.34202
1.215816
1.073066
0.926748
0.795677
0.698348
0.662336
0.678557
0.738253
0.85667
1.002989
1.151579
1.289787
1.400742
1.457193
1.458167
1.415342
1.305035
1.163258
1.006233
0.858617
0.737928
0.666878
0.658118
0.691859
0.776211
0.907606
1.058142
1.206408
1.337154
1.433185
1.469197
1.455896
1.3962
1.270321
1.121407
0.967626
0.827472
0.718787
0.662336
0.662985
0.705485
0.80833
0.949782
1.106158
1.255721
1.378032
1.453625
1.47082
1.441296
1.35662
1.221007
1.064631
0.914419
0.786269
0.692508
0.660065
0.676286
0.73728
0.857968
1.00526
1.152228
1.284271
1.389063
1.439999
1.440647
1.40496
1.302115
1.166503
1.027646
0.889438
0.77102
0.693806
0.67726
0.707756
0.791784
0.924801
1.076311
1.224251
1.351429
1.444865
1.477308
1.46206
1.400093
1.27389
1.120109
0.968924
0.83396
0.725276
0.673042
0.676935
0.721382
0.826174
0.965355
1.114918
1.258317
1.380628
1.460438
1.481201
1.455247
1.371543
1.235607
1.079231
0.928045
0.798273
0.704512
0.672393
0.687642
0.749932
0.876136
1.024726
1.174289
1.31347
1.426048
1.483148
1.479255
1.439025
1.327421
1.186617
1.030566
0.883274
0.763234
0.689588
0.676611
0.704836
0.787891
0.920259
1.071444
1.219061
1.348184
1.444865
1.482175
1.47082
1.408529
1.281676
1.12822
0.974764
0.834933
0.725924
0.67434
0.67726
0.722031
0.830067
0.97087
1.123678
1.267076
1.385494
1.460113
1.476984
1.447785
1.361486
1.2249
1.069498
0.919935
0.78854
0.693481
0.660714
0.678557
0.745715
0.875487
1.031215
1.180129
1.315741
1.420533
1.47082
1.469522
1.42475
1.311524
1.160987
1.001691
0.853751
0.736306
0.668825
0.667202
0.716516
0.806059
0.937129
1.089937
1.235282
1.362784
1.4533
1.483472
1.464007
1.397822
1.270645
1.120758
0.966977
0.829094
0.724627
0.674664
0.676935
0.719436
0.826174
0.968599
1.118811
1.26221
1.380303
1.454274
1.468224
1.437728
1.35078
1.212572
1.054898
0.902415
0.772318
0.676935
0.644168
0.659416
0.724302
0.854724
1.009802
1.16488
1.303737
1.412422
1.466278
1.466278
1.423453
1.314443
1.1678
1.008504
0.856995
0.741173
0.671096
0.661038
0.693806
0.779131
0.910202
1.061062
1.208354
1.335532
1.428968
1.462709
1.44746
1.381925
1.251504
1.097074
0.943294
0.803464
0.698348
0.660065
0.666229
0.712623
0.820983
0.961462
1.111349
1.254748
1.372841
1.445189
1.459464
1.429292
1.340074
1.205434
1.049058
0.897549
0.767127
0.674664
0.64287
0.65974
0.721707
0.84272
0.990012
1.138602
1.278756
1.39036
1.443243
1.444865
1.403013
1.294004
1.152876
0.998771
0.853102
0.732089
0.655847
0.641248
0.668176
0.750257
0.880354
1.030566
1.179155
1.313146
1.413071
1.449732
1.436105
1.376086
1.251179
1.099021
0.94232
0.801193
0.689913
0.638652
0.644817
0.690886
0.797299
0.940049
1.096101
1.243393
1.362459
1.436105
1.452651
1.421506
1.334234
1.192782
1.039974
0.888789
0.759341
0.667527
0.635732
0.653901
0.71684
0.840449
0.989363
1.138602
1.275836
1.38517
1.437728
1.437728
1.392956
1.283298
1.137628
0.981901
0.835582
0.717165
0.64579
0.632813
0.663634
0.749284
0.883274
1.036081
1.184671
1.312497
1.404311
1.435781
1.419559
1.354997
1.228794
1.075013
0.923828
0.79146
0.692184
0.64287
0.643519
0.685695
0.790162
0.929343
1.080853
1.230091
1.353375
1.42767
1.441621
1.411773
1.323203
1.184671
1.028944
0.878083
0.748635
0.657469
0.627297
0.643519
0.706134
0.828769
0.976061
1.125949
1.262859
1.370895
1.421506
1.417937
1.372192
1.267725
1.13114
0.980279
0.833311
0.715867
0.648061
0.63703
0.667202
0.751879
0.882949
1.031539
1.175262
1.298222
1.387765
1.417288
1.39912
1.339425
1.223927
1.078257
0.928045
0.787242
0.679531
0.631839
0.63703
0.682451
0.789189
0.929019
1.077933
1.220358
1.338127
1.407555
1.417613
1.385818
1.296924
1.158067
1.004611
0.865106
0.744093
0.657145
0.632164
0.65455
0.718787
0.841098
0.988714
1.132762
1.268699
1.375437
1.427021
1.425399
1.381276
1.271294
1.125949
0.971519
0.824227
0.706134
0.635084
0.622431
0.652603
0.743768
0.877758
1.03089
1.178182
1.306333
1.398796
1.43059
1.414368
1.35078
1.222954
1.070146
0.917339
0.779456
0.672393
0.626973
0.634435
0.682775
0.793731
0.935183
1.087017
1.233984
1.354673
1.42767
1.44227
1.412097
1.324501
1.18824
1.033161
0.882949
0.755123
0.664931
0.636706
0.655198
0.717814
0.842071
0.99131
1.140873
1.276809
1.388089
1.442918
1.442594
1.397498
1.285893
1.143792
0.994229
0.852453
0.732089
0.66558
0.653252
0.68018
0.766478
0.897224
1.046787
1.194404
1.321581
1.419884
1.45914
1.45038
1.390685
1.261886
1.118811
0.969897
0.83396
0.721382
0.670122
0.674015
0.720409
0.829094
0.970221
1.119136
1.26513
1.388414
1.462709
1.48185
1.455896
1.371543
1.233984
1.075013
0.923503
0.794055
0.703214
0.675313
0.695428
0.75999
0.882625
1.031215
1.180778
1.317363
1.423777
1.474388
1.472117
1.426048
1.314768
1.167151
1.013371
0.869972
0.75707
0.688939
0.676286
0.705161
0.791135
0.921881
1.072417
1.223603
1.354673
1.447785
1.479904
1.464007
1.40204
1.271294
1.117189
0.970546
0.832338
0.723978
0.673691
0.677909
0.725276
0.836556
0.982874
1.135682
1.27908
1.394903
1.466602
1.47601
1.442594
1.349482
1.210625
1.055871
0.906957
0.783998
0.700294
0.675638
0.693806
0.75707
0.878732
1.026348
1.175262
1.312497
1.420533
1.47082
1.4679
1.420857
1.306982
1.160338
1.004611
0.859266
0.747337
0.681477
0.670447
0.700619
0.787566
0.921232
1.07404
1.223603
1.351104
1.441945
1.471793
1.4533
1.387441
1.258641
1.104536
0.950756
0.815468
0.710676
0.66558
0.670447
0.71684
0.827147
0.967626
1.117513
1.258966
1.377383
1.447785
1.45914
1.42475
1.332936
1.196675
1.042245
0.900793
0.787242
0.704512
0.678233
0.695752
0.760639
0.883598
1.029917
1.174938
1.309253
1.414368
1.46498
1.466278
1.424101
1.312497
1.164556
1.008829
0.861861
0.743444
0.671744
0.663309
0.695752
0.7827
0.916041
1.066578
1.213221
1.338776
1.427995
1.458491
1.443567
1.384196
1.264481
1.115891
0.965031
0.827796
0.72268
0.67434
0.679855
0.726898
0.838502
0.98255
1.134384
1.278107
1.395551
1.465629
1.479579
1.449083
1.360513
1.225225
1.071444
0.92253
0.795353
0.707107
0.679855
0.69997
0.767776
0.89398
1.044841
1.195701
1.332936
1.439674
1.488663
1.488014
1.441945
1.330341
1.183049
1.029268
0.88522
0.766803
0.697699
0.693481
0.728195
0.818063
0.951729
1.102914
1.251828
1.380952
1.473415
1.505209
1.490285
1.423777
1.294653
1.141197
0.989039
0.853102
0.746688
0.699646
0.705161
0.752528
0.863159
1.006233
1.158392
1.303413
1.42183
1.494503
1.509751
1.479579
1.389063
1.25053
1.094154
0.944267
0.817414
0.727222
0.698348
0.713921
0.776536
0.894304
1.039974
1.189213
1.331314
1.44227
1.495476
1.511374
1.48477
1.377708
1.228794
1.067227
0.91961
0.797624
0.727222
0.714569
0.747337
0.838502
0.974439
1.126922
1.276485
1.405933
1.498721
1.530191
1.512671
1.445514
1.317363
1.162934
1.011749
0.874839
0.768425
0.723005
0.728195
0.775238
0.886843
1.029917
1.180778
1.324825
1.44227
1.512996
1.526622
1.495801
1.40496
1.267076
1.111998
0.962111
0.835258
0.750581
0.723653
0.74247
0.809628
0.936481
1.086044
1.240473
1.379005
1.485095
1.531488
1.526622
1.478606
1.364406
1.215492
1.059116
0.912148
0.795353
0.727547
0.719111
0.75707
0.853426
0.989363
1.138602
1.283298
1.41372
1.512996
1.546412
1.528893
1.457193
1.324825
1.166503
1.010775
0.87419
0.764856
0.714569
0.721058
0.775563
0.893656
1.042245
1.197972
1.342993
1.456869
1.523702
1.534733
1.500992
1.411773
1.26805
1.111998
0.960489
0.834285
0.74539
0.718787
0.738577
0.805735
0.930965
1.078906
1.226847
1.360513
1.462384
1.508129
1.503587
1.455247
1.34202
1.197324
1.047436
0.908255
0.795028
0.727871
0.717489
0.748959
0.837529
0.969573
1.119784
1.266428
1.391658
1.479579
1.508129
1.490285
1.423128
1.294653
1.141197
0.990012
0.854724
0.750581
0.702241
0.705161
0.752203
0.86251
1.00526
1.15677
1.303737
1.424101
1.492557
1.503587
1.470171
1.378357
1.242744
1.088963
0.940049
0.812223
0.72268
0.695428
0.714569
0.781727
0.90566
1.054249
1.201541
1.335856
1.449407
1.49937
1.495152
1.446812
1.333909
1.184995
1.028295
0.886843
0.770372
0.703863
0.692184
0.723653
0.817739
0.958218
1.114269
1.262859
1.386143
1.472117
1.499045
1.47893
1.411449
1.282649
1.130166
0.980603
0.84564
0.744093
0.698348
0.704188
0.752203
0.866403
1.0111
1.160987
1.303737
1.421182
1.490285
1.501965
1.469846
1.377383
1.237553
1.082475
0.933561
0.807681
0.721382
0.695752
0.716516
0.784647
0.910202
1.059765
1.20803
1.343318
1.447136
1.494828
1.492881
1.442594
1.329367
1.183049
1.029917
0.886518
0.770696
0.704836
0.69705
0.729493
0.822281
0.957569
1.109727
1.256695
1.38225
1.471468
1.500018
1.483148
1.415017
1.286867
1.132762
0.981577
0.84564
0.741822
0.69705
0.70289
0.751555
0.864132
1.006882
1.157419
1.299195
1.411449
1.471144
1.474388
1.434159
1.336505
1.195053
1.046463
0.91961
0.824552
0.753501
0.728844
0.744417
0.808655
0.928694
1.075337
1.221332
1.3537
1.454598
1.49937
1.49353
1.443567
1.327421
1.179804
1.02797
0.88814
0.770047
0.702241
0.69121
0.726573
0.818712
0.95108
1.098696
1.244366
1.369272
1.454598
1.480228
1.460113
1.393929
1.267725
1.117189
0.968599
0.830067
0.726898
0.682775
0.687317
0.733711
0.843693
0.98839
1.138602
1.280703
1.393929
1.456545
1.463033
1.425724
1.331963
1.196675
1.049058
0.904362
0.780753
0.695103
0.670122
0.689588
0.757394
0.880678
1.025699
1.168449
1.294978
1.390685
1.427995
1.414368
1.362135
1.251828
1.120109
0.986767
0.861212
0.754799
0.689913
0.67726
0.706134
0.791784
0.921557
1.068849
1.212247
1.334883
1.419884
1.446487
1.43059
1.357268
1.226847
1.072417
0.924152
0.788215
0.686344
0.64579
0.651954
0.699321
0.811899
0.953675
1.10259
1.243393
1.357268
1.42183
1.431563
1.398147
1.305684
1.165529
1.010127
0.860239
0.734684
0.649683
0.625351
0.646763
0.717489
0.843693
0.992607
1.139899
1.275187
1.380628
1.427021
1.420857
1.372192
1.259615
1.113296
0.960489
0.818712
0.705161
0.642546
0.635084
0.667527
0.757394
0.889762
1.041272
1.191484
1.317363
1.403013
1.427995
1.409502
1.338127
1.207381
1.051978
0.899495
0.764207
0.658443
0.611725
0.618213
0.671096
0.787566
0.936156
1.094479
1.23366
1.347536
1.408529
1.413071
1.378681
1.28784
1.153201
1.007207
0.863483
0.738902
0.65163
0.626973
0.650981
0.721707
0.846289
0.994878
1.13925
1.269672
1.370895
1.415666
1.4108
1.360513
1.245015
1.098048
0.946214
0.805086
0.692508
0.630217
0.624702
0.659416
0.750257
0.884896
1.034459
1.181426
1.305359
1.391983
1.417288
1.397822
1.327745
1.198621
1.046463
0.895927
0.762585
0.661687
0.621133
0.630217
0.681477
0.794704
0.937454
1.086368
1.224251
1.340722
1.405933
1.415991
1.382899
1.289462
1.150605
0.996176
0.849533
0.727871
0.646439
0.623404
0.653252
0.724302
0.849533
0.997149
1.142819
1.272916
1.373166
1.416315
1.41372
1.368624
1.257019
1.111998
0.957893
0.815468
0.699646
0.638328
0.639626
0.67726
0.772318
0.90566
1.0536
1.196999
1.318012
1.401391
1.425075
1.410151
1.346562
1.221007
1.07112
0.921881
0.78854
0.687642
0.646763
0.655198
0.70581
0.815143
0.954973
1.103563
1.242744
1.356944
1.426697
1.445838
1.417937
1.324176
1.184671
1.029592
0.882625
0.760314
0.676286
0.653901
0.675962
0.74831
0.879705
1.028619
1.175911
1.307306
1.408529
1.452976
1.448434
1.398796
1.284271
1.138926
0.989363
0.847586
0.734035
0.67142
0.66558
0.701592
0.795028
0.930641
1.080528
1.225225
1.349482
1.434483
1.460762
1.441945
1.371219
1.246637
1.093181
0.944267
0.813197
0.711001
0.669149
0.678557
0.729818
0.843693
0.988714
1.139575
1.281351
1.395876
1.461087
1.47082
1.43643
1.341371
1.203163
1.050032
0.903064
0.780753
0.698997
0.678557
0.70289
0.775563
0.901766
1.051978
1.195701
1.327096
1.42767
1.474064
1.471468
1.423453
1.308279
1.163258
1.014993
0.875163
0.76291
0.69997
0.694455
0.730142
0.823254
0.957893
1.108105
1.255721
1.380952
1.469522
1.498721
1.483472
1.41372
1.283622
1.132762
0.989687
0.864132
0.766478
0.727222
0.736955
0.788215
0.901118
1.043219
1.197324
1.343318
1.454922
1.518511
1.534084
1.511049
1.423128
1.292707
1.147037
1.007856
0.888789
0.808979
0.790486
0.818387
0.895602
1.027321
1.178831
1.327745
1.461087
1.563931
1.609028
1.605134
1.556794
1.443243
1.297897
1.147361
1.007207
0.896251
0.834609
0.829418
0.864457
0.958218
1.092208
1.243069
1.391009
1.517213
1.608379
1.637902
1.621356
1.55063
1.42183
1.269347
1.118487
0.98547
0.884572
0.843693
0.850831
0.901442
1.016615
1.159041
1.306982
1.444541
1.555496
1.618436
1.627845
1.595401
1.500343
1.360513
1.206732
1.058791
0.934534
0.851804
0.829094
0.849533
0.918637
1.045814
1.195377
1.341696
1.469197
1.566527
1.607081
1.599295
1.545114
1.423128
1.273565
1.1253
0.999745
0.894304
0.835258
0.827147
0.859266
0.954324
1.091234
1.2395
1.381925
1.500667
1.580478
1.600592
1.575611
1.500018
1.367975
1.214194
1.065929
0.936481
0.838178
0.796002
0.80249
0.850506
0.960813
1.100319
1.250206
1.39328
1.50748
1.571718
1.581775
1.549008
1.450056
1.306657
1.147686
0.998447
0.870945
0.790486
0.77394
0.797948
0.867377
0.990985
1.137304
1.281676
1.4108
1.508778
1.550954
1.544141
1.49061
1.370246
1.219385
1.06528
0.924152
0.810277
0.752528
0.753501
0.786918
0.881976
1.014993
1.161961
1.303737
1.421182
1.501316
1.521755
1.500667
1.430266
1.298222
1.144441
0.990336
0.857319
0.758692
0.718463
0.725276
0.77394
0.886518
1.031215
1.187915
1.337478
1.454922
1.515916
1.519809
1.479255
1.376734
1.235282
1.079555
0.930316
0.807032
0.726898
0.709703
0.734035
0.806059
0.929668
1.074688
1.218412
1.346562
1.442594
1.484446
1.480877
1.431563
1.315417
1.165529
1.008504
0.86251
0.745715
0.685046
0.673691
0.706134
0.801841
0.943618
1.099021
1.243717
1.365055
1.447136
1.474064
1.462709
1.393605
1.261561
1.108754
0.948485
0.808979
0.706459
0.662985
0.670771
0.720409
0.832014
0.975412
1.127246
1.27097
1.384196
1.452651
1.465304
1.428319
1.326123
1.194728
1.047436
0.894629
0.757719
0.663634
0.630542
0.648385
0.720409
0.850831
1.012073
1.180778
1.326123
1.429292
1.474713
1.471793
1.415991
1.292707
1.139575
0.98547
0.844991
0.730467
0.673042
0.669473
0.70873
0.808979
0.945565
1.090586
1.231713
1.348184
1.425724
1.444541
1.420857
1.343318
1.211599
1.056845
0.907282
0.775887
0.67726
0.63995
0.649683
0.703539
0.816116
0.961137
1.107132
1.242095
1.350455
1.405933
1.415017
1.378681
1.280054
1.14217
0.990661
0.845964
0.726573
0.648061
0.629568
0.654874
0.727871
0.854724
1.001042
1.145415
1.271943
1.368948
1.407231
1.396849
1.343967
1.226198
1.080204
0.932587
0.795677
0.686344
0.628595
0.623404
0.657794
0.750257
0.882301
1.026673
1.168774
1.294653
1.381276
1.404635
1.381601
1.303737
1.173316
1.024726
0.878407
0.748959
0.653901
0.62016
0.635408
0.69121
0.807357
0.950107
1.09383
1.225874
1.331638
1.386143
1.385494
1.344616
1.245664
1.101941
0.95692
0.827796
0.721058
0.648061
0.629568
0.652279
0.723005
0.85148
0.997474
1.140224
1.264805
1.363433
1.401391
1.387765
1.330016
1.209976
1.062684
0.912797
0.781727
0.679206
0.624702
0.619835
0.655198
0.750581
0.885869
1.035757
1.178182
1.297573
1.375112
1.393929
1.37057
1.294004
1.161636
1.008504
0.861212
0.733711
0.638977
0.604911
0.620484
0.678233
0.798273
0.943943
1.088315
1.222629
1.331638
1.386792
1.388738
1.349807
1.245664
1.102914
0.946862
0.803464
0.686993
0.609129
0.597774
0.631515
0.713921
0.845315
0.990661
1.130815
1.253775
1.344616
1.373814
1.365704
1.313146
1.194404
1.049058
0.906957
0.778482
0.671744
0.615293
0.614969
0.655198
0.754799
0.890736
1.041596
1.183698
1.297897
1.372841
1.390685
1.36473
1.287516
1.157419
1.005909
0.859266
0.730791
0.636057
0.60264
0.616915
0.672069
0.789837
0.940698
1.090586
1.226198
1.332612
1.387765
1.391009
1.351753
1.251179
1.112971
0.962435
0.819036
0.700943
0.625351
0.609778
0.63703
0.713596
0.841098
0.991958
1.135682
1.260912
1.353375
1.388089
1.374788
1.317363
1.19635
1.047112
0.907931
0.781727
0.67726
0.625675
0.629568
0.669798
0.768425
0.903713
1.050356
1.188888
1.306008
1.383547
1.403662
1.381276
1.309253
1.180129
1.030241
0.883598
0.756421
0.661687
0.632488
0.64871
0.70289
0.816116
0.957244
1.102265
1.237229
1.347211
1.404311
1.406582
1.368299
1.267076
1.126922
0.975737
0.83396
0.716192
0.645465
0.638004
0.670447
0.747013
0.872892
1.01986
1.162934
1.289138
1.383872
1.419884
1.407231
1.349807
1.229442
1.080204
0.928045
0.790162
0.690237
0.642221
0.642546
0.684073
0.787242
0.925125
1.070795
1.210301
1.326447
1.403013
1.420857
1.395227
1.318012
1.188564
1.037703
0.891385
0.764856
0.669473
0.639301
0.658118
0.713921
0.827472
0.970546
1.120433
1.25345
1.359215
1.411124
1.412746
1.369921
1.265454
1.12822
0.983848
0.845964
0.730142
0.653576
0.63995
0.674015
0.764207
0.894304
1.035108
1.170396
1.301142
1.401716
1.446163
1.435457
1.371219
1.244042
1.092857
0.940698
0.805735
0.706459
0.658767
0.671096
0.724627
0.832014
0.968275
1.107132
1.240797
1.353375
1.425075
1.441621
1.413071
1.332936
1.201217
1.048734
0.898198
0.768749
0.680504
0.658767
0.687317
0.758043
0.877758
1.020833
1.162285
1.293031
1.398147
1.453949
1.460113
1.422804
1.321581
1.181102
1.02797
0.88522
0.76583
0.692508
0.677584
0.702241
0.77978
0.905984
1.052627
1.195701
1.320932
1.414044
1.448434
1.43643
1.380303
1.260912
1.115242
0.969573
0.83688
0.732738
0.682451
0.683424
0.723978
0.82293
0.957244
1.104536
1.244691
1.361486
1.436754
1.453949
1.427021
1.348833
1.219385
1.073066
0.929992
0.805735
0.718138
0.689264
0.701592
0.755772
0.870945
1.012722
1.158067
1.29368
1.403662
1.459464
1.461735
1.42183
1.318986
1.180778
1.032512
0.894304
0.781727
0.707432
0.690237
0.715867
0.791784
0.918961
1.069822
1.212572
1.336829
1.427995
1.464007
1.456869
1.407555
1.287516
1.144117
1.001367
0.868999
0.762261
0.708405
0.708405
0.749608
0.850831
0.990012
1.13925
1.280703
1.395876
1.467251
1.481201
1.452976
1.371868
1.239175
1.087666
0.946538
0.828445
0.743768
0.713596
0.725924
0.780753
0.894629
1.035757
1.183049
1.321905
1.432861
1.494503
1.499694
1.458491
1.355322
1.212572
1.060413
0.915717
0.796975
0.722356
0.708405
0.743119
0.826498
0.95692
1.105185
1.251179
1.376734
1.468873
1.502938
1.490285
1.433834
1.314443
1.168125
1.021157
0.88522
0.778807
0.726898
0.729169
0.767776
0.867052
1.002989
1.148334
1.282974
1.399769
1.48185
1.502938
1.478606
1.400093
1.271943
1.123029
0.977359
0.854075
0.764532
0.732089
0.744742
0.801841
0.921881
1.066253
1.209328
1.342669
1.448109
1.500343
1.49937
1.459789
1.357917
1.21679
1.06528
0.92253
0.806384
0.73436
0.718787
0.746039
0.824552
0.951729
1.097399
1.2395
1.365704
1.460113
1.494179
1.479579
1.420533
1.301791
1.157419
1.013695
0.882301
0.778807
0.727871
0.726249
0.763234
0.860239
0.993256
1.136979
1.275836
1.394578
1.469522
1.487041
1.463358
1.38517
1.257992
1.112647
0.972168
0.844342
0.750906
0.717814
0.731115
0.785944
0.900793
1.045165
1.187266
1.320608
1.432212
1.488014
1.489312
1.448109
1.344616
1.205434
1.056196
0.915393
0.800868
0.731764
0.718138
0.747337
0.826174
0.953027
1.098696
1.240149
1.364082
1.45622
1.490285
1.478282
1.420533
1.301142
1.155148
1.009153
0.874839
0.770047
0.719436
0.720409
0.759341
0.857319
0.99131
1.138277
1.281027
1.400093
1.477633
1.502938
1.47893
1.3962
1.264805
1.115567
0.972168
0.847262
0.754799
0.724627
0.737604
0.795677
0.915717
1.063658
1.213545
1.346238
1.451678
1.503263
1.502938
1.46206
1.356944
1.215167
1.06528
0.920259
0.802166
0.73436
0.723653
0.760639
0.841098
0.972168
1.118162
1.260588
1.384521
1.47601
1.508129
1.49353
1.434159
1.312821
1.165529
1.017264
0.884247
0.779131
0.729169
0.730467
0.772318
0.875812
1.010451
1.156445
1.294329
1.406907
1.475686
1.488014
1.456869
1.377059
1.252477
1.106807
0.965031
0.844991
0.761612
0.735009
0.748635
0.805086
0.920583
1.062684
1.206083
1.338776
1.444865
1.498396
1.500667
1.457193
1.351104
1.212247
1.066578
0.923179
0.807032
0.732738
0.718463
0.751879
0.836231
0.965031
1.111998
1.255072
1.381276
1.472117
1.502289
1.488339
1.426697
1.304711
1.157419
1.011424
0.876461
0.768749
0.717814
0.720085
0.764856
0.870621
1.0111
1.163258
1.306657
1.421506
1.493205
1.507156
1.477633
1.39328
1.259939
1.104536
0.956271
0.829094
0.740848
0.71684
0.736631
0.799895
0.924477
1.072742
1.217763
1.349807
1.4533
1.503912
1.505209
1.465629
1.358891
1.214194
1.063333
0.923503
0.808655
0.738902
0.72852
0.75707
0.836231
0.962435
1.10778
1.255072
1.388414
1.488663
1.525649
1.510076
1.448758
1.323852
1.173965
1.026348
0.89106
0.786269
0.735333
0.736306
0.778158
0.880678
1.017913
1.169423
1.312497
1.430266
1.504236
1.518511
1.489637
1.408204
1.280703
1.134384
0.990661
0.865754
0.776536
0.747013
0.764856
0.826498
0.946862
1.092208
1.236904
1.367975
1.470495
1.519484
1.517538
1.474713
1.370895
1.23074
1.084097
0.951404
0.840124
0.769723
0.756745
0.78562
0.868026
0.998447
1.14801
1.292707
1.415342
1.503263
1.534084
1.516564
1.451354
1.326772
1.183698
1.041921
0.907931
0.80249
0.752528
0.760314
0.810277
0.920908
1.059116
1.206083
1.342669
1.455896
1.523702
1.534733
1.509427
1.426372
1.289787
1.133411
0.988065
0.863808
0.772643
0.753177
0.77978
0.841422
0.959515
1.10259
1.251179
1.381601
1.485419
1.536355
1.532462
1.486392
1.37641
1.232038
1.080204
0.941023
0.828445
0.760314
0.746688
0.775887
0.858293
0.989363
1.139899
1.284271
1.407555
1.495152
1.522729
1.50748
1.447136
1.324501
1.174613
1.026673
0.893007
0.78854
0.742795
0.749608
0.79438
0.898847
1.035108
1.1824
1.321905
1.43643
1.506183
1.518835
1.491908
1.411124
1.279405
1.126598
0.980603
0.855373
0.76583
0.739226
0.755123
0.818387
0.939725
1.086044
1.231713
1.364406
1.468549
1.522404
1.522729
1.479579
1.371543
1.225549
1.07112
0.929343
0.812872
0.747013
0.736631
0.774265
0.867052
1.001367
1.148983
1.291409
1.412746
1.501316
1.534733
1.523378
1.461735
1.335856
1.185969
1.035757
0.89982
0.794704
0.748959
0.759341
0.805086
0.908579
1.051654
1.207057
1.347536
1.45914
1.532786
1.547061
1.515591
1.430266
1.298222
1.150281
1.006558
0.882301
0.793406
0.767127
0.789837
0.85667
0.981577
1.129193
1.274214
1.405609
1.507805
1.55647
1.554199
1.510076
1.401716
1.259615
1.106807
0.968924
0.857319
0.790811
0.783024
0.815792
0.904362
1.033486
1.182075
1.326447
1.448758
1.536355
1.563931
1.543817
1.479255
1.354024
1.20803
1.061062
0.929019
0.826823
0.782051
0.789513
0.834609
0.941671
1.081826
1.231713
1.374463
1.490934
1.560038
1.570745
1.539924
1.452651
1.318337
1.165854
1.01986
0.896251
0.809952
0.784647
0.803788
0.866728
0.985794
1.128869
1.272916
1.401716
1.502614
1.557767
1.561012
1.517213
1.406258
1.261237
1.105834
0.95984
0.840449
0.771669
0.767452
0.807681
0.902415
1.039325
1.189213
1.329367
1.449407
1.538301
1.565554
1.543492
1.482175
1.359215
1.204461
1.053925
0.918312
0.815468
0.772643
0.779131
0.823578
0.927721
1.062684
1.207057
1.350131
1.467251
1.539924
1.554523
1.522729
1.433834
1.295302
1.140548
0.994554
0.87419
0.792109
0.768425
0.787242
0.850506
0.971195
1.116865
1.261886
1.392307
1.492232
1.536679
1.530191
1.481526
1.369597
1.225549
1.075337
0.938103
0.82812
0.765181
0.75707
0.786918
0.867701
0.992607
1.138926
1.284596
1.407231
1.500343
1.545439
1.539924
1.476659
1.346238
1.191484
1.041272
0.90566
0.800544
0.753826
0.759665
0.804112
0.908255
1.044192
1.186942
1.321257
1.429292
1.500018
1.523378
1.501316
1.416315
1.282325
1.132762
0.989039
0.858941
0.769723
0.742146
0.759016
0.826174
0.943618
1.093181
1.243069
1.377383
1.478606
1.521755
1.514618
1.468549
1.359864
1.22198
1.076311
0.936805
0.823903
0.760314
0.754799
0.788864
0.874839
1.005585
1.153201
1.295951
1.416315
1.502938
1.528893
1.507156
1.438052
1.310875
1.155148
1.010451
0.878083
0.782376
0.74831
0.759665
0.808979
0.917664
1.057494
1.204786
1.342669
1.452651
1.516889
1.524351
1.489637
1.399445
1.26805
1.127246
0.989363
0.870945
0.786269
0.759341
0.777509
0.840449
0.962111
1.106807
1.252153
1.388414
1.49645
1.546412
1.544141
1.495801
1.381925
1.235282
1.08215
0.942969
0.836231
0.774265
0.773616
0.810277
0.898198
1.028619
1.176884
1.319634
1.440323
1.523702
1.546088
1.521431
1.448109
1.317363
1.165854
1.023104
0.904037
0.816765
0.785944
0.804112
0.858293
0.966653
1.102914
1.245988
1.381601
1.491908
1.555821
1.56458
1.531488
1.440323
1.304386
1.151903
1.007207
0.88522
0.800544
0.777834
0.800868
0.867377
0.99131
1.137628
1.282325
1.412097
1.512671
1.55647
1.549981
1.501316
1.387441
1.244366
1.097399
0.962435
0.855373
0.793406
0.787891
0.821956
0.909553
1.038028
1.184671
1.328718
1.44746
1.529217
1.555496
1.537328
1.470495
1.345913
1.197648
1.058791
0.934858
0.835582
0.792109
0.803788
0.859915
0.968599
1.10778
1.25345
1.389387
1.499045
1.562634
1.570745
1.537004
1.446163
1.309901
1.156445
1.010775
0.889762
0.806059
0.783673
0.805735
0.872568
0.994878
1.140548
1.283947
1.413395
1.512671
1.558416
1.554199
1.508129
1.3962
1.252801
1.100967
0.961137
0.84856
0.784322
0.777509
0.811574
0.897224
1.02505
1.171045
1.311848
1.431563
1.517862
1.553874
1.550305
1.490285
1.364082
1.209976
1.060413
0.925774
0.822605
0.778482
0.786593
0.836556
0.94524
1.083448
1.228145
1.363433
1.472766
1.537653
1.543492
1.508454
1.414044
1.275187
1.12238
0.978332
0.856346
0.77394
0.760639
0.789837
0.85667
0.978981
1.127571
1.275187
1.405609
1.506183
1.549332
1.540897
1.488988
1.374463
1.227496
1.075013
0.933561
0.820334
0.758043
0.753826
0.787891
0.87419
1.003962
1.148983
1.296275
1.421182
1.507156
1.532786
1.511374
1.441621
1.311199
1.157419
1.006233
0.874514
0.778158
0.738902
0.748635
0.795353
0.904037
1.042245
1.189537
1.327096
1.437079
1.502289
1.511049
1.474713
1.381276
1.243069
1.094803
0.954973
0.834933
0.751555
0.728195
0.747013
0.812548
0.933236
1.080853
1.228145
1.360513
1.463033
1.505858
1.496774
1.444541
1.328394
1.183049
1.035432
0.897873
0.786593
0.7256
0.724627
0.759341
0.849208
0.983848
1.132762
1.272916
1.391658
1.473415
1.495152
1.471793
1.402689
1.275187
1.12822
0.986119
0.857319
0.756421
0.715543
0.723329
0.771345
0.880354
1.017913
1.163583
1.302764
1.414693
1.477633
1.482824
1.447136
1.355646
1.21679
1.065604
0.926423
0.814494
0.735982
0.716516
0.73728
0.804112
0.927397
1.07404
1.217763
1.347211
1.446487
1.489637
1.481201
1.431239
1.318012
1.174613
1.024077
0.881003
0.766478
0.702241
0.693806
0.729493
0.820659
0.95984
1.120109
1.266752
1.388089
1.471793
1.496774
1.473091
1.400742
1.27097
1.11946
0.973141
0.842071
0.743119
0.701592
0.711974
0.761288
0.872243
1.012398
1.158392
1.295626
1.405284
1.466278
1.472117
1.436105
1.342669
1.205759
1.054249
0.910202
0.792433
0.711649
0.690561
0.714894
0.783349
0.907282
1.052627
1.194404
1.321257
1.419235
1.458167
1.448434
1.39912
1.285893
1.143792
0.995527
0.857644
0.747013
0.684722
0.677909
0.713921
0.803464
0.936156
1.083124
1.223603
1.343642
1.426048
1.447136
1.423453
1.3537
1.226847
1.074364
0.92837
0.798597
0.69997
0.65974
0.6685
0.718138
0.827796
0.966977
1.111998
1.246637
1.355322
1.415017
1.421182
1.383223
1.287191
1.15093
0.998447
0.85667
0.743119
0.666229
0.644492
0.662985
0.72852
0.848884
0.99942
1.148659
1.284271
1.387765
1.432537
1.425724
1.373166
1.255721
1.107456
0.954324
0.811899
0.698672
0.63411
0.626324
0.660714
0.757394
0.898522
1.060413
1.209976
1.328718
1.408529
1.429617
1.407231
1.335532
1.208679
1.063333
0.917988
0.787242
0.687317
0.646763
0.657145
0.707756
0.817739
0.957244
1.10259
1.238526
1.348509
1.409502
1.415666
1.379654
1.286542
1.150605
0.999745
0.856022
0.736631
0.655523
0.635732
0.659416
0.729818
0.855373
1.001691
1.144766
1.271943
1.370895
1.416639
1.410151
1.358891
1.243069
1.096425
0.946538
0.808655
0.700294
0.643519
0.643519
0.681802
0.774589
0.907606
1.054898
1.196675
1.316066
1.398796
1.420533
1.397822
1.32515
1.195377
1.043219
0.894304
0.764207
0.667527
0.63119
0.642546
0.698348
0.818712
0.966004
1.114594
1.252477
1.361486
1.419559
1.42183
1.382574
1.285245
1.147361
1.000394
0.859915
0.741173
0.661038
0.646114
0.673367
0.744742
0.868999
1.014993
1.161961
1.298871
1.400742
1.440647
1.428968
1.373166
1.254424
1.106807
0.954649
0.816116
0.70873
0.654874
0.654874
0.695103
0.793406
0.929992
1.079555
1.224251
1.346887
1.432537
1.453625
1.427995
1.355322
1.225874
1.074364
0.927721
0.796975
0.699646
0.660714
0.672069
0.724302
0.836231
0.980603
1.131464
1.26805
1.37641
1.436105
1.440323
1.403987
1.309253
1.174613
1.025375
0.883598
0.76291
0.685371
0.665905
0.691535
0.763559
0.890411
1.038352
1.183049
1.31055
1.409178
1.449407
1.439025
1.386792
1.271618
1.126922
0.979306
0.842071
0.733062
0.67434
0.671744
0.711974
0.806384
0.941347
1.09091
1.23658
1.356944
1.439025
1.461087
1.437728
1.366353
1.238851
1.088315
0.94232
0.814494
0.717814
0.68018
0.692184
0.745066
0.857644
0.9965
1.139575
1.277134
1.387441
1.445838
1.451029
1.415342
1.320283
1.186293
1.039974
0.900469
0.784647
0.712623
0.698672
0.724302
0.794704
0.91961
1.067227
1.209976
1.333909
1.428319
1.464007
1.449407
1.389712
1.274214
1.131464
0.98547
0.857968
0.761936
0.709054
0.705161
0.74247
0.838178
0.974115
1.123029
1.263183
1.379979
1.455571
1.472766
1.446163
1.372841
1.24534
1.095452
0.948809
0.822281
0.727871
0.691535
0.705485
0.758368
0.870621
1.012073
1.155472
1.289787
1.394903
1.455247
1.460113
1.424101
1.32807
1.190186
1.039001
0.895278
0.777185
0.699321
0.681802
0.707756
0.779131
0.905011
1.051978
1.19343
1.31931
1.414368
1.450705
1.440323
1.389712
1.277458
1.137628
0.990985
0.853751
0.743119
0.684397
0.680504
0.718463
0.813197
0.944267
1.092857
1.235282
1.350455
1.42767
1.443243
1.415991
1.344616
1.217114
1.067227
0.919286
0.79438
0.708405
0.679531
0.69705
0.750257
0.86543
1.006882
1.149957
1.282649
1.387441
1.444216
1.444541
1.405933
1.309577
1.172991
1.022131
0.877758
0.75999
0.682126
0.665256
0.690561
0.760963
0.884896
1.028619
1.168125
1.292382
1.387441
1.428968
1.43059
1.384521
1.267076
1.118487
0.966977
0.827472
0.717489
0.66266
0.66558
0.707756
0.804437
0.939725
1.086044
1.226198
1.342669
1.419884
1.43643
1.409826
1.334558
1.201217
1.04549
0.892358
0.758043
0.658443
0.615618
0.625351
0.687966
0.820334
0.975412
1.127895
1.262534
1.365704
1.418586
1.41891
1.378681
1.277134
1.133086
0.978008
0.831365
0.70873
0.626973
0.609778
0.635084
0.704512
0.824552
0.963733
1.098696
1.219709
1.315092
1.354024
1.34494
1.295951
1.180453
1.029592
0.873865
0.729493
0.615293
0.553976
0.550083
0.584148
0.674989
0.801841
0.94232
1.076311
1.185644
1.258317
1.274214
1.243717
1.160338
1.021482
0.86251
0.711649
0.580904
0.482601
0.442696
0.450806
0.499147
0.608805
0.74539
0.886194
1.015642
1.118487
1.171694
1.169098
1.124651
1.018886
0.87419
0.71684
0.567926
0.444642
0.362561
0.342122
0.368401
0.441074
0.56598
0.709378
0.846613
0.967626
1.056196
1.086044
1.064956
1.001691
0.874514
0.723329
0.563709
0.41739
0.299946
0.236357
0.23214
0.268476
0.364508
0.500445
0.64579
0.783673
0.900469
0.975737
0.99131
0.962435
0.884247
0.751555
0.599721
0.44886
0.316816
0.215594
0.17504
0.183475
0.231815
0.339526
0.473192
0.609454
0.73436
0.83396
0.882625
0.874839
0.824876
0.714245
0.565655
0.402142
0.245766
0.12605
0.057595
0.027748
0.037156
0.119886
0.253552
0.405386
0.548136
0.673042
0.771994
0.813197
0.807032
0.758692
0.645141
0.50596
0.365157
0.235384
0.137081
0.088092
0.101394
0.153627
0.259716
0.403439
0.563709
0.713596
0.837205
0.921232
0.943618
0.923179
0.859915
0.734035
0.591934
0.453078
0.332713
0.24609
0.221433
0.246739
0.312923
0.439451
0.592259
0.747986
0.894629
1.017264
1.08799
1.099345
1.066902
0.974439
0.843044
0.701592
0.569224
0.462162
0.398573
0.395978
0.438478
0.527372
0.669473
0.832662
0.989039
1.129193
1.239175
1.288489
1.286867
1.240149
1.131464
0.993905
0.854075
0.728844
0.634435
0.591934
0.605236
0.660065
0.771994
0.921557
1.081502
1.235282
1.364406
1.451029
1.477633
1.458491
1.391334
1.269672
1.125624
0.98839
0.870621
0.787566
0.769074
0.793082
0.858617
0.983523
1.135682
1.288813
1.428968
1.54479
1.605459
1.611623
1.575935
1.479579
1.342669
1.193106
1.054574
0.940698
0.869648
0.860888
0.90274
0.990336
1.122055
1.269347
1.408853
1.528568
1.616165
1.647635
1.637902
1.590535
1.485095
1.354997
1.217114
1.080853
0.969248
0.911175
0.910526
0.952702
1.049058
1.182075
1.328394
1.46498
1.576909
1.648933
1.663208
1.637578
1.559065
1.420533
1.258317
1.104212
0.969248
0.871919
0.834933
0.849533
0.906957
1.022455
1.161312
1.302115
1.429941
1.529217
1.578206
1.572691
1.525324
1.419235
1.278107
1.119784
0.972168
0.85148
0.773616
0.759341
0.786269
0.865754
0.994229
1.140548
1.282649
1.406582
1.498072
1.531164
1.514942
1.455896
1.334558
1.1824
1.035432
0.89982
0.794055
0.742795
0.747013
0.790486
0.892358
1.03089
1.181426
1.323528
1.441296
1.517213
1.533435
1.506507
1.428643
1.29368
1.138602
0.992283
0.864781
0.771994
0.739875
0.757719
0.818712
0.937454
1.081826
1.232687
1.370895
1.479255
1.534408
1.534408
1.492557
1.390685
1.254099
1.107456
0.966004
0.84564
0.77102
0.761288
0.792757
0.873541
1.012722
1.176884
1.334234
1.467251
1.561985
1.592806
1.577233
1.522729
1.401391
1.256046
1.105509
0.981252
0.880354
0.834609
0.844991
0.894304
1.000718
1.144766
1.301142
1.452003
1.57626
1.658666
1.683971
1.666128
1.59605
1.469846
1.322879
1.18532
1.067551
0.982874
0.961137
0.99131
1.065929
1.197972
1.357917
1.517538
1.66483
1.785518
1.854947
1.87052
1.847485
1.765404
1.64731
1.517213
1.399769
1.312172
1.267401
1.28492
1.340722
1.436105
1.574638
1.728743
1.875062
1.996075
2.078805
2.097946
2.067774
1.98764
1.848783
1.684945
1.521431
1.376086
1.267076
1.217114
1.230416
1.291084
1.413395
1.577882
1.755671
1.926322
2.074263
2.177757
2.218635
2.211822
2.146936
2.025922
1.876035
1.721281
1.578206
1.465629
1.413071
1.406907
1.446163
1.549656
1.67878
1.809202
1.926322
2.014243
2.051553
2.035331
1.97596
1.855271
1.694678
1.523702
1.361486
1.22782
1.142495
1.118811
1.135682
1.20511
1.323203
1.459464
1.587615
1.69922
1.779679
1.801416
1.776759
1.712197
1.59897
1.45914
1.310875
1.171694
1.062684
1.006233
1.006233
1.044841
1.144117
1.282649
1.430914
1.563607
1.672941
1.745289
1.755346
1.718685
1.629467
1.494503
1.333585
1.175262
1.035108
0.927397
0.880354
0.881003
0.924477
1.029917
1.161636
1.29368
1.41372
1.505534
1.541546
1.523053
1.462709
1.346238
1.194079
1.029917
0.873541
0.742146
0.652927
0.626324
0.643194
0.709703
0.831689
0.972817
1.105834
1.222305
1.30763
1.33618
1.31931
1.260263
1.13925
0.990661
0.84272
0.709703
0.606209
0.558193
0.566629
0.616267
0.720734
0.85959
1.009802
1.152876
1.269996
1.34786
1.366353
1.341696
1.264481
1.132762
0.983848
0.842395
0.722031
0.632488
0.60264
0.629244
0.690237
0.807681
0.943294
1.083773
1.214194
1.321581
1.381601
1.386792
1.350131
1.251179
1.109727
0.958866
0.812548
0.696726
0.626
0.61724
0.650007
0.730467
0.857319
1.002665
1.144117
1.266752
1.359539
1.400742
1.392956
1.338451
1.222954
1.079231
0.936156
0.803788
0.700294
0.650981
0.658118
0.704188
0.807681
0.946538
1.096425
1.237553
1.354024
1.430266
1.447136
1.419884
1.341047
1.21095
1.059116
0.914095
0.790486
0.698348
0.668176
0.691859
0.758043
0.877758
1.021482
1.166827
1.308279
1.421182
1.475037
1.473739
1.429617
1.325799
1.182724
1.033161
0.891709
0.775563
0.703863
0.69121
0.722356
0.801193
0.930641
1.078906
1.224251
1.345264
1.436754
1.4679
1.450705
1.389712
1.269023
1.122055
0.97671
0.84272
0.73436
0.682126
0.684073
0.725924
0.826498
0.96276
1.109078
1.248584
1.364406
1.437403
1.451354
1.420533
1.338451
1.203488
1.050356
0.903713
0.777834
0.685046
0.653901
0.670771
0.728195
0.84564
0.987741
1.132762
1.265454
1.370895
1.42183
1.426048
1.391009
1.29076
1.148983
1.000718
0.86543
0.751555
0.678557
0.663309
0.691535
0.768425
0.896575
1.043867
1.185969
1.30763
1.395876
1.424426
1.405609
1.343967
1.219061
1.074688
0.935507
0.808006
0.704188
0.652603
0.656821
0.703863
0.81125
0.952702
1.101616
1.240473
1.353375
1.424426
1.437728
1.406258
1.323203
1.187915
1.034459
0.888465
0.763234
0.672393
0.642221
0.65974
0.721058
0.841747
0.984172
1.130815
1.266103
1.371543
1.422804
1.422155
1.384521
1.284596
1.144441
0.994229
0.853426
0.739551
0.6685
0.658443
0.691859
0.771345
0.900469
1.04841
1.190186
1.313146
1.404311
1.435132
1.418586
1.358566
1.23658
1.091883
0.946538
0.813197
0.709703
0.661038
0.665256
0.708405
0.810926
0.947511
1.093181
1.23074
1.34202
1.41372
1.428319
1.398796
1.321257
1.199919
1.0536
0.907282
0.782376
0.69121
0.661687
0.679855
0.741497
0.861861
1.00818
1.152876
1.283947
1.389387
1.438701
1.437079
1.391658
1.28492
1.143468
0.991634
0.849533
0.73436
0.667527
0.660065
0.692832
0.774589
0.903713
1.049707
1.189862
1.314443
1.405609
1.43643
1.422804
1.366677
1.246637
1.099994
0.952053
0.817739
0.712623
0.662985
0.666553
0.710676
0.815143
0.953027
1.101292
1.241446
1.355971
1.428319
1.44227
1.411773
1.327745
1.193106
1.041272
0.894953
0.771345
0.680828
0.651954
0.67142
0.73144
0.84856
0.992283
1.136006
1.269347
1.375112
1.428643
1.432537
1.392307
1.28492
1.140873
0.986443
0.842071
0.728195
0.660065
0.65455
0.687966
0.774265
0.905984
1.053925
1.19635
1.318986
1.40788
1.43643
1.417613
1.357268
1.234633
1.086692
0.940374
0.808006
0.704188
0.655847
0.662011
0.706783
0.809952
0.94816
1.095452
1.234309
1.348509
1.418586
1.430266
1.400093
1.315092
1.179155
1.026024
0.878407
0.75415
0.669149
0.643194
0.662011
0.723978
0.84564
0.992607
1.138926
1.27097
1.373166
1.420208
1.416639
1.374788
1.277783
1.140873
0.988065
0.844342
0.726898
0.656496
0.644492
0.676935
0.761612
0.893656
1.046138
1.19343
1.320283
1.409826
1.437403
1.420533
1.35662
1.233984
1.089288
0.936481
0.802815
0.698672
0.650332
0.655847
0.700294
0.803788
0.941023
1.08799
1.22782
1.342669
1.41372
1.425724
1.396525
1.313795
1.180778
1.029268
0.884247
0.762585
0.675638
0.648385
0.667202
0.726573
0.844991
0.987741
1.131788
1.268699
1.380628
1.432861
1.43059
1.386792
1.280378
1.137304
0.985794
0.844991
0.730142
0.661363
0.654874
0.689264
0.771669
0.89982
1.046787
1.187915
1.308928
1.398471
1.429292
1.414368
1.354024
1.232362
1.084097
0.938427
0.804112
0.700619
0.657469
0.665256
0.707107
0.806708
0.944916
1.10259
1.248259
1.365704
1.431888
1.446163
1.414693
1.332612
1.204137
1.057818
0.914419
0.79146
0.700619
0.673042
0.688615
0.746364
0.863159
1.004287
1.147686
1.281027
1.388738
1.445838
1.448109
1.405609
1.297249
1.153201
1.003314
0.86251
0.750906
0.689264
0.682451
0.712623
0.794055
0.921881
1.068524
1.211599
1.332936
1.420857
1.450056
1.43351
1.371543
1.247611
1.099021
0.951729
0.818712
0.718138
0.671096
0.676286
0.72268
0.82812
0.967302
1.113945
1.251179
1.36473
1.434808
1.447785
1.417288
1.332612
1.201217
1.049383
0.904362
0.781402
0.695103
0.665905
0.686668
0.750257
0.868026
1.012722
1.156121
1.286867
1.390036
1.437403
1.439025
1.400093
1.293355
1.149957
0.997798
0.856346
0.741173
0.670122
0.660389
0.696401
0.782376
0.912148
1.058467
1.203488
1.330665
1.419884
1.447785
1.429292
1.365704
1.2395
1.086044
0.939076
0.807357
0.704836
0.653252
0.661038
0.713596
0.825201
0.971519
1.121731
1.260912
1.373166
1.442918
1.452976
1.420208
1.333261
1.197648
1.04549
0.898198
0.775887
0.691859
0.662336
0.682451
0.74539
0.866079
1.010451
1.15385
1.283298
1.385494
1.434159
1.428319
1.381601
1.272916
1.133086
0.981901
0.842071
0.728844
0.660389
0.650981
0.683424
0.766803
0.895602
1.03965
1.180129
1.301142
1.391009
1.41891
1.39912
1.336829
1.21387
1.06528
0.915393
0.77978
0.673691
0.624377
0.628595
0.674015
0.781402
0.921557
1.069173
1.207705
1.319634
1.387765
1.398471
1.365055
1.277134
1.139899
0.985145
0.838502
0.712623
0.621458
0.592259
0.608805
0.674664
0.796326
0.941347
1.084746
1.214843
1.315741
1.364406
1.355971
1.308604
1.200892
1.058791
0.902091
0.755123
0.641897
0.56598
0.551056
0.580904
0.672393
0.815468
0.973466
1.125949
1.257019
1.343642
1.36765
1.344616
1.278107
1.150605
0.999745
0.850182
0.716516
0.610427
0.56306
0.568575
0.613347
0.718787
0.856346
1.003314
1.140224
1.251828
1.319634
1.329367
1.297249
1.211274
1.076959
0.924801
0.778482
0.654225
0.566629
0.544243
0.565655
0.629893
0.750581
0.893007
1.036406
1.1678
1.269996
1.320283
1.323203
1.283298
1.179155
1.038028
0.88814
0.746364
0.630542
0.562087
0.552354
0.583823
0.667202
0.794704
0.941023
1.08215
1.201866
1.286542
1.310875
1.289787
1.224251
1.098372
0.948485
0.799895
0.668825
0.567602
0.521208
0.52575
0.570846
0.676286
0.810926
0.956271
1.090261
1.201866
1.266752
1.275512
1.240473
1.151903
1.015966
0.864457
0.716516
0.587717
0.495902
0.464757
0.479032
0.54035
0.660389
0.801841
0.942969
1.075013
1.183373
1.233984
1.229118
1.179804
1.066902
0.922206
0.767776
0.623729
0.506933
0.441722
0.433287
0.46573
0.548136
0.675313
0.819685
0.959515
1.077608
1.160338
1.184995
1.162285
1.094803
0.966004
0.816765
0.666878
0.532888
0.429718
0.384298
0.393058
0.440425
0.541972
0.678557
0.823578
0.95984
1.072417
1.139899
1.15093
1.116216
1.027321
0.890411
0.737604
0.590637
0.465406
0.376836
0.350233
0.368401
0.433936
0.5543
0.699646
0.84272
0.974115
1.075986
1.123029
1.122055
1.078582
0.971844
0.83104
0.680504
0.540674
0.42615
0.360939
0.353477
0.388191
0.477734
0.612049
0.760314
0.904362
1.031539
1.12238
1.154823
1.142819
1.082475
0.959515
0.812872
0.667851
0.53743
0.436856
0.396951
0.406684
0.456646
0.565655
0.705485
0.854399
0.991634
1.105185
1.17364
1.192457
1.166827
1.082475
0.958542
0.813521
0.678233
0.560789
0.479032
0.456646
0.481627
0.549434
0.674664
0.823903
0.972168
1.105834
1.210625
1.260263
1.258966
1.21679
1.1107
0.97087
0.826823
0.68829
0.578957
0.518937
0.515044
0.553651
0.64579
0.783024
0.937778
1.08215
1.206408
1.294004
1.322554
1.306657
1.244691
1.123029
0.97963
0.840773
0.717489
0.622755
0.583823
0.594854
0.646439
0.757719
0.900793
1.051329
1.191808
1.306657
1.377059
1.391009
1.362135
1.278756
1.147037
0.99942
0.858617
0.741822
0.65974
0.638977
0.663634
0.732089
0.857319
1.005909
1.153201
1.286218
1.390685
1.43935
1.435132
1.391983
1.283947
1.143144
0.994878
0.858941
0.752852
0.691535
0.690237
0.730467
0.821632
0.960164
1.115242
1.256695
1.379005
1.465304
1.492232
1.473415
1.412097
1.290111
1.144766
1.007207
0.886194
0.790162
0.752203
0.764207
0.816116
0.926099
1.067875
1.21679
1.357917
1.472442
1.540897
1.55355
1.522729
1.434483
1.29952
1.145739
1.001042
0.879056
0.795677
0.777185
0.809952
0.882625
1.005585
1.152552
1.30244
1.450705
1.569122
1.623303
1.620058
1.572367
1.459464
1.315741
1.165529
1.026673
0.916366
0.851804
0.84564
0.880354
0.96795
1.097399
1.247286
1.392956
1.51624
1.612596
1.648933
1.638226
1.57626
1.449732
1.299195
1.152228
1.020508
0.920583
0.879705
0.889114
0.937778
1.047436
1.18532
1.332936
1.468224
1.580153
1.648608
1.658666
1.624925
1.538626
1.407555
1.257992
1.111674
0.988714
0.902415
0.878407
0.90274
0.972168
1.095128
1.238526
1.381276
1.506831
1.605134
1.653475
1.651853
1.605134
1.492881
1.354673
1.209652
1.070471
0.958866
0.89398
0.887167
0.92253
1.011424
1.14217
1.287191
1.426372
1.543492
1.623303
1.645364
1.622654
1.552252
1.420857
1.270645
1.126922
0.996825
0.897224
0.859266
0.873865
0.930641
1.043219
1.177209
1.318986
1.451678
1.559389
1.623951
1.633035
1.598321
1.50748
1.370895
1.215492
1.071769
0.948809
0.863483
0.839476
0.858617
0.91961
1.043219
1.186617
1.327421
1.4533
1.550954
1.59605
1.592157
1.54479
1.433185
1.288489
1.140873
1.003638
0.891709
0.825849
0.815792
0.846289
0.931614
1.060738
1.204461
1.348833
1.474388
1.563283
1.589562
1.566851
1.496125
1.36765
1.216465
1.067227
0.935507
0.832338
0.790162
0.798273
0.845315
0.952378
1.090261
1.233011
1.365379
1.473091
1.533759
1.540572
1.515591
1.433834
1.295951
1.143144
0.997474
0.880678
0.791784
0.76583
0.790486
0.862835
0.988065
1.131464
1.271618
1.395876
1.489961
1.52792
1.518187
1.466278
1.350455
1.205759
1.062036
0.940049
0.831365
0.770372
0.763883
0.799246
0.887491
1.01694
1.161961
1.29952
1.416639
1.498396
1.520458
1.498721
1.429941
1.30244
1.151579
1.004611
0.873541
0.773291
0.731764
0.739875
0.788864
0.898198
1.036081
1.182075
1.318661
1.427021
1.489961
1.497423
1.462384
1.370246
1.233336
1.076311
0.933885
0.810277
0.729169
0.712947
0.740524
0.809303
0.931939
1.076635
1.217763
1.344616
1.443892
1.485743
1.479255
1.431563
1.320932
1.177209
1.026673
0.886518
0.774914
0.710676
0.702565
0.736306
0.82293
0.952378
1.096101
1.235931
1.35662
1.444216
1.469197
1.448758
1.383547
1.259615
1.110376
0.963084
0.831365
0.731115
0.68829
0.694779
0.740524
0.846289
0.982874
1.124975
1.25929
1.371543
1.443892
1.455896
1.421182
1.32807
1.189862
1.035432
0.887491
0.768749
0.687966
0.663634
0.683748
0.752528
0.877434
1.022779
1.16488
1.292058
1.389712
1.430266
1.420533
1.369921
1.257019
1.11362
0.963408
0.824876
0.716516
0.655198
0.648385
0.681477
0.772643
0.908904
1.059116
1.202839
1.320932
1.403987
1.425399
1.403987
1.333261
1.204786
1.053276
0.906633
0.775238
0.67434
0.631839
0.638328
0.6831
0.790162
0.929019
1.080528
1.215816
1.324176
1.388738
1.403662
1.375761
1.289138
1.157094
1.006882
0.864781
0.746039
0.663309
0.640599
0.661363
0.727871
0.848884
0.992932
1.134708
1.263183
1.362459
1.404635
1.396525
1.346562
1.233011
1.089288
0.939725
0.80249
0.69997
0.641897
0.638652
0.673367
0.761936
0.895602
1.042894
1.184022
1.30244
1.385494
1.409178
1.387765
1.320283
1.196026
1.049058
0.904686
0.77686
0.680504
0.641248
0.653576
0.703214
0.813521
0.952702
1.095777
1.234633
1.34786
1.414044
1.42183
1.391009
1.298222
1.161636
1.0111
0.86835
0.745715
0.659092
0.635408
0.655523
0.723005
0.84856
0.998447
1.153525
1.293355
1.396849
1.439025
1.429292
1.381601
1.269672
1.123678
0.971844
0.832987
0.72268
0.661038
0.656172
0.692832
0.783024
0.917664
1.069498
1.211274
1.32807
1.409178
1.430914
1.40788
1.340074
1.214519
1.064956
0.919935
0.79146
0.697374
0.664931
0.676611
0.726573
0.834609
0.973466
1.118811
1.257019
1.368299
1.429292
1.432537
1.394578
1.300168
1.161961
1.005585
0.868999
0.757394
0.682126
0.663309
0.683424
0.751555
0.871919
1.014993
1.158067
1.288489
1.391658
1.436105
1.427995
1.378032
1.263183
1.117513
0.967302
0.828445
0.717489
0.656496
0.650332
0.686344
0.776211
0.905984
1.052627
1.193106
1.312172
1.393605
1.415666
1.398471
1.330989
1.205434
1.054898
0.907606
0.778807
0.6831
0.644168
0.65455
0.706134
0.818387
0.958218
1.102914
1.237553
1.347536
1.410151
1.417613
1.383872
1.292707
1.158067
1.008504
0.864781
0.746364
0.664607
0.644817
0.667851
0.737604
0.858941
1.002665
1.143468
1.268374
1.36473
1.409502
1.401716
1.362784
1.271943
1.130166
0.984172
0.847586
0.73436
0.672393
0.665256
0.698997
0.78854
0.91961
1.067551
1.210301
1.337154
1.419884
1.443567
1.416964
1.349482
1.220358
1.068524
0.922206
0.791784
0.694779
0.662011
0.673367
0.722031
0.834285
0.971844
1.119136
1.258317
1.371219
1.437403
1.445838
1.411449
1.318986
1.186942
1.04257
0.903389
0.78562
0.70581
0.686993
0.710027
0.778482
0.900469
1.044516
1.188564
1.318986
1.420857
1.461411
1.452976
1.403013
1.289787
1.145739
0.997798
0.859915
0.750257
0.69121
0.689588
0.727547
0.821307
0.952378
1.101941
1.243717
1.362459
1.445514
1.4679
1.445514
1.376734
1.249233
1.100319
0.955298
0.826498
0.730791
0.692832
0.703214
0.753177
0.862835
1.003638
1.146063
1.279729
1.388089
1.452976
1.46206
1.430266
1.339749
1.209003
1.063333
0.921232
0.802166
0.723329
0.703863
0.727547
0.796975
0.920908
1.0682
1.211274
1.337803
1.434483
1.473739
1.464331
1.413071
1.298871
1.154499
1.007856
0.871919
0.763883
0.705485
0.70289
0.739226
0.832014
0.96276
1.107456
1.245015
1.360513
1.438376
1.459789
1.437728
1.374463
1.252477
1.106807
0.963733
0.834609
0.736306
0.69705
0.707107
0.756097
0.867701
1.008829
1.155796
1.296924
1.409502
1.468549
1.473415
1.434808
1.336505
1.201866
1.049707
0.905335
0.787566
0.706134
0.685695
0.711001
0.782376
0.908579
1.056196
1.197648
1.328394
1.431888
1.474713
1.468224
1.413071
1.297249
1.152228
1.001367
0.864781
0.760639
0.703539
0.701268
0.745066
0.842395
0.976061
1.121407
1.260588
1.380952
1.460113
1.482175
1.460113
1.388738
1.25929
1.108754
0.961462
0.832662
0.736955
0.701268
0.712623
0.763883
0.878407
1.01694
1.160663
1.295302
1.405609
1.467251
1.473739
1.43643
1.339749
1.204137
1.055547
0.914419
0.796326
0.717814
0.699646
0.722356
0.799246
0.925125
1.072093
1.215167
1.341696
1.43643
1.475037
1.464655
1.412746
1.2966
1.151903
1.003638
0.867052
0.759341
0.702565
0.698672
0.733711
0.825525
0.955298
1.100643
1.248259
1.373814
1.456869
1.47893
1.454274
1.38225
1.256695
1.107132
0.962111
0.834285
0.738577
0.703539
0.71684
0.769398
0.882301
1.021806
1.165529
1.300168
1.407555
1.465304
1.469846
1.432861
1.337803
1.201217
1.051005
0.909877
0.792109
0.714894
0.697699
0.724302
0.798273
0.923179
1.068849
1.210625
1.334234
1.430266
1.467575
1.454598
1.400093
1.283947
1.136655
0.987741
0.854724
0.754474
0.700619
0.700619
0.739551
0.833636
0.969248
1.117513
1.256695
1.371543
1.451354
1.475362
1.449407
1.374788
1.245664
1.097074
0.954324
0.827472
0.731764
0.694455
0.704836
0.756097
0.868674
1.011749
1.162609
1.300493
1.407231
1.462709
1.461087
1.425724
1.327745
1.188888
1.037379
0.897873
0.783024
0.706459
0.68829
0.712947
0.784647
0.909553
1.055871
1.198297
1.324176
1.419559
1.457193
1.444865
1.390685
1.270321
1.123029
0.976061
0.844666
0.747013
0.695103
0.695428
0.735982
0.83396
0.962111
1.109727
1.250855
1.367001
1.443567
1.466278
1.442594
1.369597
1.239824
1.087341
0.940049
0.811899
0.712947
0.67434
0.686344
0.745066
0.866079
1.007531
1.157743
1.294653
1.401067
1.455571
1.459464
1.422804
1.32515
1.18532
1.03673
0.899495
0.784971
0.707432
0.686993
0.711325
0.7827
0.907931
1.055223
1.201541
1.331638
1.427995
1.463033
1.449732
1.392956
1.275187
1.129842
0.981577
0.849208
0.747013
0.69413
0.693157
0.732089
0.825849
0.958866
1.105185
1.24534
1.363433
1.441621
1.458491
1.430914
1.354349
1.223927
1.070795
0.926099
0.803464
0.710027
0.674989
0.699321
0.761936
0.878083
1.018562
1.161312
1.294329
1.401391
1.456869
1.458167
1.42183
1.328394
1.191159
1.042245
0.898522
0.777834
0.701592
0.686019
0.712947
0.786918
0.913446
1.05944
1.204461
1.330989
1.426372
1.461735
1.448758
1.393605
1.274863
1.126922
0.980279
0.845964
0.740848
0.686668
0.692184
0.735982
0.834285
0.968599
1.113296
1.254099
1.372192
1.451354
1.474064
1.452327
1.380303
1.250855
1.097723
0.950756
0.824227
0.732089
0.699646
0.714569
0.768101
0.881652
1.023753
1.167151
1.301466
1.409178
1.466602
1.470495
1.43351
1.337478
1.200568
1.048734
0.905984
0.789837
0.714569
0.698997
0.726898
0.801193
0.928045
1.075986
1.219385
1.346562
1.441945
1.480228
1.468549
1.41372
1.299844
1.151903
1.003962
0.869323
0.762261
0.709054
0.709378
0.749932
0.847586
0.981577
1.128869
1.269347
1.386467
1.464331
1.483472
1.458167
1.383547
1.253775
1.104536
0.960489
0.834933
0.741497
0.710027
0.724302
0.77978
0.895278
1.038352
1.183049
1.318337
1.426697
1.483472
1.487366
1.448109
1.349158
1.209652
1.059116
0.916366
0.798922
0.722031
0.70581
0.732738
0.809952
0.938103
1.089937
1.239824
1.367975
1.457518
1.49645
1.48477
1.42767
1.306333
1.158392
1.009802
0.880029
0.779456
0.732089
0.73728
0.77978
0.879056
1.011424
1.159041
1.298871
1.415666
1.483797
1.494828
1.461735
1.378681
1.244366
1.098372
0.959515
0.843693
0.765505
0.750906
0.772643
0.826498
0.937129
1.075337
1.215492
1.346887
1.451678
1.506831
1.510076
1.471144
1.371219
1.233011
1.08215
0.940698
0.823254
0.746364
0.729169
0.755448
0.83104
0.958866
1.106807
1.252477
1.380628
1.473739
1.505209
1.49353
1.43643
1.318661
1.177858
1.034783
0.901766
0.796326
0.740524
0.741173
0.779131
0.878732
1.011749
1.158067
1.298222
1.415666
1.489961
1.50748
1.480553
1.403338
1.273241
1.122055
0.976386
0.849533
0.757394
0.724302
0.739875
0.795677
0.911824
1.054574
1.201541
1.335856
1.442594
1.497747
1.49937
1.460113
1.361162
1.222305
1.07112
0.929019
0.812223
0.735657
0.721382
0.749608
0.826498
0.952378
1.098372
1.242095
1.363108
1.451678
1.48185
1.464331
1.403662
1.291084
1.162285
1.029592
0.90274
0.797948
0.74539
0.745715
0.784322
0.881327
1.018886
1.167476
1.306333
1.419884
1.493854
1.512347
1.489961
1.415666
1.286542
1.133735
0.986119
0.85148
0.756745
0.720085
0.732089
0.78562
0.90274
1.057818
1.215816
1.355322
1.460113
1.511698
1.512347
1.47082
1.369272
1.228794
1.077933
0.931614
0.818712
0.743444
0.727222
0.754799
0.831689
0.95984
1.106483
1.248259
1.372192
1.46206
1.495476
1.482499
1.425075
1.308279
1.162609
1.013695
0.874514
0.769723
0.718138
0.723653
0.770372
0.868999
1.001042
1.147686
1.286542
1.400093
1.473739
1.490934
1.47082
1.397498
1.266428
1.115891
0.969897
0.843369
0.749932
0.718138
0.733711
0.789189
0.904362
1.046138
1.189862
1.32223
1.426048
1.480877
1.478282
1.433185
1.330341
1.188564
1.032512
0.889438
0.773291
0.711325
0.714569
0.758043
0.842071
0.968924
1.111025
1.250206
1.371868
1.461411
1.494179
1.48185
1.420857
1.300493
1.154174
1.004936
0.870297
0.765181
0.714569
0.716516
0.757719
0.857968
0.994229
1.140224
1.279729
1.393929
1.466926
1.483148
1.454922
1.376086
1.244366
1.09383
0.949458
0.825201
0.735333
0.704836
0.721382
0.779131
0.896575
1.039001
1.182724
1.317688
1.423777
1.475362
1.473091
1.430266
1.328394
1.18824
1.03965
0.903389
0.790811
0.718787
0.705485
0.734035
0.813197
0.939725
1.087666
1.232038
1.358566
1.449732
1.478606
1.46498
1.40496
1.284271
1.137953
0.989363
0.853751
0.745066
0.69705
0.702565
0.747661
0.847911
0.981252
1.126922
1.269672
1.38517
1.45622
1.470495
1.445838
1.366353
1.237229
1.093181
0.949782
0.826823
0.735657
0.704188
0.718787
0.775238
0.891709
1.033161
1.176884
1.31055
1.414693
1.463682
1.460762
1.419235
1.31347
1.171369
1.02797
0.897549
0.790162
0.721707
0.709703
0.73728
0.815143
0.94232
1.087666
1.229767
1.3537
1.444216
1.475362
1.459789
1.401067
1.280054
1.13114
0.984172
0.85148
0.743444
0.69121
0.692832
0.733711
0.834609
0.970546
1.119136
1.259615
1.374463
1.445514
1.469197
1.447785
1.369272
1.236904
1.084421
0.939076
0.813845
0.724951
0.693157
0.711001
0.768101
0.886194
1.029917
1.171694
1.30244
1.408204
1.463682
1.465304
1.422804
1.318012
1.176884
1.02797
0.886194
0.771994
0.701592
0.688939
0.717489
0.793082
0.918961
1.070471
1.216465
1.34202
1.438052
1.47601
1.463358
1.405609
1.28784
1.13925
0.988714
0.849857
0.746039
0.698997
0.703863
0.748635
0.85148
0.986443
1.132437
1.270645
1.383547
1.45622
1.469522
1.441296
1.359539
1.228469
1.078582
0.932263
0.80833
0.71976
0.690237
0.707756
0.767127
0.884896
1.028944
1.172991
1.304711
1.4108
1.461735
1.457842
1.413395
1.308279
1.1678
1.016615
0.876785
0.767776
0.702241
0.69413
0.724951
0.804437
0.933561
1.076311
1.21679
1.337803
1.427021
1.455896
1.43935
1.38225
1.263508
1.117838
0.969897
0.841098
0.741497
0.691859
0.693806
0.736306
0.837205
0.976386
1.125624
1.266752
1.381925
1.4533
1.464655
1.434159
1.349807
1.215492
1.063009
0.916366
0.789837
0.699321
0.670447
0.692184
0.760639
0.890411
1.038677
1.182724
1.311848
1.412422
1.458491
1.455571
1.411124
1.306008
1.16488
1.013695
0.87127
0.754799
0.684073
0.676611
0.711001
0.795353
0.925125
1.07112
1.21679
1.344291
1.433834
1.464007
1.448109
1.388738
1.261237
1.11654
0.97379
0.842071
0.735982
0.685371
0.689264
0.734684
0.840124
0.978332
1.1253
1.264481
1.376086
1.447136
1.458816
1.42767
1.342993
1.212572
1.064631
0.919286
0.798922
0.714894
0.687642
0.705161
0.764856
0.883274
1.026348
1.171694
1.305035
1.409178
1.45914
1.45622
1.412746
1.307955
1.167151
1.017913
0.876785
0.76291
0.693157
0.6831
0.713921
0.796975
0.927397
1.07404
1.217763
1.336505
1.429292
1.458816
1.441945
1.380952
1.258641
1.111025
0.963084
0.83104
0.72852
0.681153
0.686993
0.731764
0.835582
0.97379
1.12238
1.258641
1.376734
1.447136
1.459789
1.429292
1.347211
1.215492
1.064307
0.918312
0.794055
0.706134
0.678557
0.697374
0.759341
0.876785
1.023753
1.167476
1.303088
1.410475
1.459464
1.455896
1.411449
1.306008
1.16488
1.014669
0.872892
0.756421
0.684397
0.673367
0.705485
0.789837
0.92545
1.082799
1.230416
1.354349
1.446163
1.47601
1.456545
1.391334
1.267076
1.116865
0.970546
0.835582
0.732413
0.684073
0.69121
0.73728
0.844991
0.985145
1.131464
1.267725
1.377708
1.445838
1.459464
1.433834
1.354024
1.222629
1.069173
0.921232
0.799246
0.712298
0.688939
0.708405
0.775238
0.90274
1.051329
1.195701
1.327096
1.427995
1.474713
1.471144
1.425399
1.319959
1.179155
1.028619
0.887167
0.774265
0.705485
0.694455
0.7256
0.810926
0.946538
1.094803
1.23658
1.357917
1.446163
1.47601
1.45914
1.39912
1.280378
1.134384
0.987741
0.855697
0.753826
0.707756
0.714245
0.761288
0.867701
1.007531
1.15677
1.297249
1.410475
1.480228
1.492881
1.461735
1.377708
1.241446
1.091234
0.946538
0.826174
0.739551
0.715543
0.736631
0.801517
0.924152
1.072417
1.215167
1.347211
1.450056
1.498396
1.494503
1.45038
1.341047
1.199595
1.054898
0.911175
0.798273
0.73144
0.723329
0.75707
0.842395
0.974439
1.122704
1.265779
1.387765
1.476659
1.505209
1.488339
1.425724
1.303413
1.154499
1.00526
0.876461
0.774589
0.729818
0.736306
0.783998
0.888789
1.029917
1.177533
1.31639
1.427346
1.495152
1.505858
1.474064
1.387441
1.25637
1.105834
0.960813
0.837205
0.749284
0.726573
0.747661
0.810277
0.929019
1.075337
1.220034
1.347211
1.447785
1.497099
1.499694
1.461735
1.359864
1.222954
1.073066
0.93129
0.816441
0.746039
0.736306
0.768101
0.852777
0.983848
1.13114
1.271618
1.393605
1.480877
1.508129
1.487366
1.419235
1.292382
1.14217
0.994878
0.865754
0.769074
0.727222
0.736631
0.785944
0.892358
1.030566
1.175911
1.312497
1.422804
1.488988
1.503587
1.47601
1.389387
1.252153
1.098372
0.95108
0.82812
0.741173
0.715867
0.738577
0.806059
0.929343
1.07404
1.216141
1.34202
1.441296
1.483797
1.475686
1.42767
1.320932
1.183373
1.038677
0.899171
0.789837
0.720409
0.709378
0.741173
0.831689
0.967302
1.120109
1.267725
1.390036
1.474388
1.499694
1.479579
1.413071
1.288813
1.139899
0.991634
0.858617
0.75707
0.711974
0.719436
0.765181
0.873216
1.012722
1.158716
1.295302
1.405933
1.471144
1.479904
1.444865
1.354349
1.219385
1.073066
0.930641
0.807681
0.722031
0.701917
0.726573
0.791784
0.914744
1.060413
1.203812
1.333909
1.435781
1.483472
1.478606
1.429941
1.318661
1.174613
1.024402
0.884572
0.770047
0.703539
0.696077
0.729493
0.815143
0.944267
1.091234
1.234958
1.361486
1.455247
1.487041
1.468549
1.401716
1.274863
1.124327
0.977359
0.843369
0.741822
0.695103
0.70581
0.753501
0.863159
1.00234
1.148659
1.285893
1.398147
1.461411
1.466602
1.43059
1.338451
1.200568
1.052627
0.913122
0.797948
0.716516
0.697374
0.721707
0.784971
0.906308
1.051005
1.194728
1.323528
1.423128
1.467251
1.459789
1.411124
1.298546
1.154174
1.004287
0.863808
0.749932
0.682451
0.674015
0.713272
0.808655
0.94232
1.089288
1.23074
1.349482
1.433185
1.456869
1.435132
1.368948
1.245015
1.09675
0.950107
0.819685
0.71684
0.673367
0.679855
0.727547
0.834933
0.974115
1.118811
1.254424
1.363757
1.426048
1.433834
1.399445
1.309253
1.174289
1.020184
0.873541
0.750257
0.665905
0.641572
0.66266
0.727547
0.848884
0.992607
1.135682
1.262859
1.361162
1.401391
1.394903
1.34494
1.233984
1.087341
0.936156
0.796975
0.6831
0.617564
0.609778
0.642546
0.730142
0.861537
1.009153
1.151254
1.273565
1.359539
1.38225
1.358891
1.288165
1.158392
1.006233
0.856346
0.726249
0.632164
0.594854
0.603614
0.65163
0.758368
0.895927
1.041272
1.177533
1.29076
1.355646
1.365055
1.330016
1.237553
1.099994
0.947511
0.803464
0.683748
0.603289
0.581552
0.605236
0.673691
0.795028
0.940698
1.085719
1.212896
1.311848
1.354997
1.348184
1.300817
1.189537
1.046787
0.898198
0.759665
0.650981
0.588365
0.583499
0.620484
0.708405
0.840773
0.990336
1.133411
1.253126
1.339425
1.364406
1.344291
1.276485
1.149308
0.998447
0.851155
0.718787
0.621782
0.583823
0.593232
0.643843
0.759665
0.90274
1.049383
1.185644
1.297897
1.367326
1.379979
1.350455
1.264157
1.131788
0.981577
0.838827
0.719436
0.635732
0.612698
0.635732
0.706459
0.832662
0.976061
1.117513
1.245015
1.343967
1.388089
1.389063
1.353051
1.25053
1.1107
0.962111
0.822605
0.710352
0.647736
0.642221
0.678233
0.766154
0.896575
1.044192
1.184995
1.304711
1.390685
1.415991
1.396849
1.333909
1.217763
1.073715
0.927397
0.797948
0.702565
0.664282
0.675962
0.726898
0.837853
0.978657
1.1253
1.262534
1.372192
1.435457
1.44227
1.406907
1.31639
1.180453
1.035432
0.901118
0.786593
0.705161
0.685046
0.710352
0.780429
0.904362
1.051978
1.195701
1.324176
1.424426
1.465629
1.457842
1.408204
1.298222
1.154499
1.003962
0.866728
0.758692
0.698997
0.70289
0.747013
0.841422
0.975737
1.1253
1.269996
1.392632
1.475362
1.499045
1.476984
1.408853
1.282649
1.132762
0.988065
0.85959
0.761612
0.722031
0.733711
0.784971
0.896251
1.03673
1.182724
1.318986
1.42475
1.491259
1.500018
1.4679
1.381276
1.253775
1.112647
0.978008
0.853751
0.771669
0.750906
0.776211
0.845964
0.969248
1.115242
1.25929
1.388414
1.487366
1.529217
1.521431
1.472117
1.359864
1.214843
1.066253
0.930316
0.82293
0.763883
0.761936
0.798597
0.888465
1.020833
1.170396
1.315417
1.439674
1.525973
1.551603
1.531813
1.461735
1.333585
1.1824
1.034783
0.904686
0.804437
0.763883
0.774589
0.824552
0.937778
1.082799
1.233011
1.369272
1.474388
1.532462
1.534408
1.492232
1.398147
1.272592
1.134708
1.000069
0.882625
0.797948
0.778807
0.80249
0.871594
0.993256
1.138277
1.279729
1.40496
1.500667
1.540248
1.526946
1.480553
1.364406
1.227496
1.075013
0.939725
0.827147
0.766478
0.761936
0.79957
0.891385
1.024402
1.171045
1.312172
1.430266
1.511049
1.532462
1.509427
1.437728
1.308604
1.158067
1.011424
0.882949
0.784647
0.745715
0.756745
0.808006
0.919286
1.060413
1.205434
1.340722
1.449407
1.511374
1.516889
1.480228
1.385818
1.247611
1.095777
0.951729
0.832014
0.751555
0.732089
0.756745
0.82812
0.952053
1.098372
1.242744
1.37057
1.4679
1.507156
1.497099
1.444865
1.329692
1.185644
1.036081
0.897873
0.787242
0.726898
0.723653
0.76291
0.851155
0.984172
1.13114
1.273241
1.393605
1.47082
1.493854
1.465629
1.389712
1.260588
1.109403
0.964706
0.839476
0.750257
0.718463
0.733062
0.786269
0.894953
1.038028
1.191808
1.330665
1.439674
1.498721
1.503587
1.464331
1.367975
1.226522
1.071769
0.925774
0.805086
0.722356
0.70289
0.730467
0.805086
0.932587
1.079231
1.221007
1.348509
1.446487
1.48769
1.478282
1.424426
1.30763
1.15969
1.007531
0.86835
0.761612
0.704188
0.70289
0.739875
0.833311
0.971195
1.120109
1.260588
1.375761
1.454274
1.473739
1.449083
1.378357
1.249557
1.098372
0.951729
0.822605
0.725924
0.687642
0.701268
0.753826
0.863808
1.007856
1.15385
1.291084
1.399769
1.460113
1.465304
1.42767
1.331314
1.192457
1.041272
0.896251
0.777509
0.697699
0.682775
0.711974
0.784647
0.909553
1.056196
1.200892
1.329043
1.425724
1.464007
1.453949
1.401391
1.286867
1.141521
0.992607
0.855697
0.747661
0.687642
0.684073
0.720734
0.81125
0.943618
1.092857
1.238526
1.361811
1.444865
1.471793
1.449407
1.377059
1.247611
1.095452
0.949133
0.818712
0.718787
0.682451
0.692184
0.743444
0.856995
1.00526
1.155796
1.292382
1.398147
1.453625
1.455896
1.416315
1.319959
1.186293
1.03965
0.902415
0.786918
0.715543
0.69705
0.722031
0.793406
0.918312
1.064307
1.206732
1.331638
1.427021
1.465953
1.454598
1.401067
1.284596
1.13925
0.989363
0.851804
0.74247
0.682451
0.679531
0.71684
0.810926
0.947836
1.099021
1.242095
1.361486
1.441621
1.463682
1.439025
1.365704
1.23658
1.086692
0.940698
0.813845
0.717165
0.681802
0.695428
0.750257
0.864132
1.005585
1.151903
1.28492
1.389712
1.444216
1.445189
1.403662
1.300493
1.162934
1.018237
0.886843
0.776211
0.700619
0.683748
0.710027
0.780429
0.908255
1.056845
1.200892
1.335207
1.437403
1.475686
1.461735
1.404635
1.285569
1.140224
0.993256
0.856995
0.748959
0.69121
0.690886
0.731115
0.82812
0.962435
1.109403
1.249233
1.365379
1.444541
1.460762
1.433834
1.359864
1.229442
1.079555
0.93421
0.806384
0.711001
0.679206
0.696401
0.751555
0.864457
1.005585
1.150281
1.284271
1.391334
1.449407
1.452327
1.414693
1.318337
1.180778
1.030566
0.887167
0.771669
0.693806
0.677584
0.704512
0.778807
0.905011
1.052952
1.196026
1.323203
1.418586
1.454598
1.441945
1.387765
1.270645
1.123678
0.97379
0.838502
0.732089
0.677584
0.679206
0.720409
0.818712
0.954
1.100319
1.240797
1.355646
1.431888
1.449407
1.42183
1.349158
1.221007
1.075337
0.935183
0.810926
0.714894
0.676935
0.687966
0.740199
0.855697
1.00526
1.159041
1.296924
1.405933
1.46206
1.464331
1.426048
1.329043
1.187915
1.035108
0.89106
0.770696
0.692832
0.677584
0.706134
0.781402
0.908579
1.055547
1.197324
1.320932
1.415017
1.451354
1.437403
1.380628
1.261561
1.117513
0.970221
0.835582
0.730467
0.676286
0.676286
0.716192
0.810601
0.943294
1.091883
1.234309
1.359539
1.441945
1.458816
1.429617
1.352402
1.220358
1.0682
0.92253
0.796975
0.701268
0.667202
0.680504
0.736306
0.852453
0.994554
1.142495
1.277783
1.384196
1.439999
1.441621
1.403338
1.305684
1.1678
1.016291
0.87419
0.758692
0.683424
0.667202
0.696077
0.771345
0.898522
1.045165
1.187591
1.31347
1.408204
1.445189
1.431239
1.374788
1.256695
1.111025
0.962435
0.827472
0.722031
0.672718
0.67726
0.721382
0.818063
0.95108
1.097723
1.241771
1.359864
1.437403
1.4533
1.426697
1.34786
1.215816
1.061062
0.911824
0.785944
0.691535
0.653252
0.676935
0.742146
0.860239
1.002016
1.148334
1.288813
1.397498
1.4533
1.4533
1.412422
1.311524
1.174289
1.019535
0.873216
0.756097
0.676286
0.661038
0.693157
0.770696
0.8969
1.044841
1.192133
1.320932
1.416315
1.450705
1.436754
1.380628
1.260263
1.11362
0.964706
0.828769
0.72268
0.669473
0.670771
0.712623
0.810926
0.944916
1.091559
1.230416
1.345589
1.421506
1.438376
1.414693
1.338451
1.208354
1.059116
0.914095
0.786918
0.692508
0.659416
0.673691
0.729493
0.844018
0.98839
1.13633
1.271294
1.380952
1.438052
1.43935
1.397822
1.296275
1.157419
1.005909
0.863483
0.747661
0.67142
0.656496
0.683748
0.755772
0.878407
1.021806
1.166503
1.294004
1.387765
1.43059
1.425724
1.37349
1.260912
1.118811
0.968924
0.833311
0.727871
0.674989
0.678233
0.720734
0.819036
0.954649
1.099994
1.238851
1.354349
1.429617
1.444865
1.417613
1.339749
1.208354
1.058142
0.914095
0.788864
0.695752
0.662336
0.677909
0.735009
0.852128
0.995852
1.138926
1.271294
1.376734
1.430266
1.430914
1.391009
1.294653
1.159041
1.009153
0.868026
0.752528
0.676611
0.663634
0.692508
0.770372
0.898522
1.045814
1.189213
1.315092
1.40788
1.44227
1.428968
1.373166
1.255072
1.109727
0.962111
0.828445
0.723329
0.670122
0.67142
0.714245
0.812548
0.949458
1.095777
1.234958
1.350131
1.427021
1.444541
1.415017
1.336505
1.205434
1.05652
0.912148
0.787891
0.698348
0.669798
0.688939
0.74539
0.860239
1.000718
1.145415
1.278107
1.385494
1.440647
1.441945
1.402364
1.30244
1.160987
1.009478
0.866728
0.751879
0.678233
0.665905
0.696077
0.773291
0.901766
1.052303
1.199919
1.320283
1.412422
1.446487
1.43351
1.376734
1.257668
1.110052
0.962435
0.827147
0.721058
0.669798
0.669798
0.711001
0.809628
0.94232
1.090261
1.23074
1.344616
1.418586
1.441945
1.423777
1.349807
1.217763
1.064956
0.91669
0.792433
0.70289
0.671096
0.685046
0.739551
0.862186
1.007207
1.150281
1.281351
1.38517
1.438701
1.44227
1.409178
1.31347
1.176884
1.026348
0.881976
0.763559
0.689264
0.676935
0.710676
0.793406
0.922206
1.069173
1.210625
1.333909
1.427021
1.458816
1.445838
1.387441
1.267725
1.120433
0.971844
0.836556
0.733062
0.684397
0.687642
0.729493
0.829743
0.971195
1.121731
1.263508
1.37933
1.452651
1.468873
1.441621
1.363108
1.232362
1.082475
0.938103
0.818063
0.720085
0.686668
0.702565
0.758692
0.874514
1.018562
1.168774
1.304386
1.410151
1.462709
1.461735
1.420857
1.320283
1.181751
1.031539
0.893331
0.775238
0.701917
0.690237
0.720409
0.797948
0.926423
1.073715
1.217763
1.34202
1.434483
1.466602
1.452327
1.394903
1.274538
1.12822
0.980279
0.846613
0.741173
0.690561
0.692832
0.735333
0.835258
0.969573
1.115567
1.253775
1.366028
1.438376
1.451029
1.421182
1.339749
1.211599
1.06528
0.922206
0.80249
0.720085
0.694455
0.710676
0.766478
0.880678
1.022455
1.165529
1.300817
1.411773
1.46498
1.463682
1.42183
1.317688
1.177858
1.028295
0.884896
0.768749
0.696401
0.6831
0.711974
0.792109
0.921881
1.068849
1.210625
1.332936
1.422155
1.4533
1.442594
1.387765
1.270645
1.124651
0.975737
0.843044
0.739226
0.688939
0.691535
0.734684
0.834933
0.972492
1.121407
1.260588
1.37349
1.445514
1.458491
1.429292
1.348509
1.216141
1.067227
0.929019
0.808979
0.717814
0.685371
0.700619
0.758692
0.87711
1.020184
1.16488
1.297249
1.403013
1.455247
1.454598
1.41372
1.31055
1.171045
1.021157
0.880354
0.766478
0.695103
0.6831
0.712947
0.79438
0.921557
1.069173
1.21387
1.337154
1.429941
1.461735
1.44746
1.388738
1.267401
1.11946
0.972168
0.838827
0.733386
0.683424
0.690237
0.730791
0.832987
0.970221
1.116216
1.258641
1.374463
1.446487
1.46206
1.432537
1.34786
1.212572
1.061387
0.917988
0.792757
0.703214
0.681153
0.70581
0.769723
0.892358
1.039001
1.184022
1.31347
1.414368
1.461087
1.456869
1.412422
1.306982
1.163583
1.015966
0.884896
0.776211
0.707107
0.693481
0.727547
0.810277
0.940698
1.089612
1.229767
1.351753
1.441945
1.474713
1.458816
1.398796
1.277783
1.130491
0.983523
0.850831
0.746364
0.695752
0.701917
0.741173
0.840449
0.975737
1.119136
1.258317
1.372517
1.449407
1.466926
1.438376
1.358242
1.226198
1.076311
0.930316
0.807032
0.715867
0.688939
0.704512
0.765505
0.884247
1.028944
1.175262
1.307955
1.412097
1.462384
1.460762
1.417288
1.313795
1.173965
1.02505
0.884247
0.769723
0.699321
0.687642
0.71684
0.797299
0.926748
1.07404
1.216141
1.3391
1.429617
1.461087
1.445838
1.386467
1.26513
1.117838
0.970221
0.837529
0.733062
0.685371
0.68829
0.732089
0.834933
0.971519
1.117189
1.25637
1.37057
1.440972
1.452976
1.423128
1.3391
1.206083
1.057169
0.914095
0.794704
0.706783
0.679531
0.698348
0.758043
0.875487
1.015642
1.158067
1.28784
1.390036
1.443567
1.450056
1.416315
1.313795
1.172342
1.020833
0.877758
0.762261
0.69121
0.68018
0.709054
0.789513
0.918637
1.069498
1.216141
1.338776
1.426372
1.454598
1.437728
1.37641
1.254748
1.108429
0.965031
0.834285
0.730467
0.68018
0.6831
0.727222
0.830067
0.966004
1.114594
1.260263
1.376086
1.44746
1.458491
1.427021
1.348184
1.213221
1.061387
0.915717
0.791784
0.70581
0.679855
0.699321
0.759341
0.876785
1.019211
1.162934
1.29952
1.404635
1.455247
1.452651
1.408529
1.300817
1.160014
1.010127
0.87127
0.759341
0.692184
0.683424
0.714569
0.795677
0.924152
1.068524
1.211923
1.334234
1.422804
1.454274
1.438376
1.377059
1.256695
1.110052
0.964057
0.83104
0.727547
0.679855
0.684397
0.729169
0.832338
0.970221
1.116216
1.255397
1.367975
1.436754
1.448434
1.418262
1.335532
1.203163
1.059116
0.91961
0.797624
0.706459
0.677584
0.694455
0.75415
0.874839
1.020833
1.164556
1.292707
1.394254
1.445838
1.444541
1.400742
1.293355
1.152552
1.006558
0.86835
0.754474
0.685695
0.67726
0.708405
0.788864
0.914419
1.061387
1.205434
1.328718
1.417288
1.450056
1.434808
1.380303
1.266752
1.119784
0.971519
0.836556
0.730467
0.680828
0.686344
0.728844
0.826498
0.961137
1.103563
1.240149
1.349482
1.419235
1.441296
1.421182
1.344616
1.21679
1.068524
0.923503
0.800868
0.711649
0.685046
0.69997
0.760639
0.878083
1.020184
1.162934
1.291733
1.392956
1.439674
1.43643
1.392632
1.28784
1.152552
1.005585
0.865106
0.75123
0.6831
0.672718
0.705161
0.788215
0.917015
1.064631
1.206408
1.327745
1.414044
1.442918
1.426372
1.361811
1.241446
1.095128
0.951729
0.819685
0.716192
0.671096
0.676611
0.723329
0.828445
0.963733
1.108754
1.246313
1.360513
1.429941
1.441621
1.412746
1.328718
1.196026
1.044841
0.900793
0.777509
0.690886
0.665256
0.682126
0.746364
0.86543
1.007856
1.15093
1.279729
1.387765
1.438701
1.435457
1.391009
1.284271
1.143468
0.994878
0.851804
0.736955
0.668176
0.656172
0.684073
0.767776
0.89982
1.04841
1.187591
1.309577
1.406258
1.441621
1.429617
1.370895
1.248584
1.100643
0.953027
0.82001
0.717489
0.671744
0.67726
0.720734
0.823254
0.959515
1.10259
1.2395
1.35078
1.41891
1.42767
1.397498
1.312172
1.184022
1.038352
0.898847
0.780753
0.696726
0.671744
0.688939
0.750581
0.868026
1.010775
1.15385
1.283947
1.391334
1.441621
1.438701
1.398796
1.29368
1.151903
1.002665
0.862835
0.749284
0.682126
0.671744
0.701268
0.7827
0.911175
1.056845
1.197324
1.321581
1.41891
1.454922
1.440647
1.37933
1.254099
1.104212
0.955622
0.823254
0.720734
0.678882
0.684722
0.73436
0.839151
0.975737
1.121082
1.258966
1.370246
1.438376
1.449407
1.418586
1.332936
1.198621
1.046787
0.901766
0.777509
0.692508
0.668825
0.687966
0.754474
0.881652
1.027321
1.169423
1.297897
1.400742
1.448434
1.443567
1.393929
1.288813
1.147037
1.001042
0.867377
0.758692
0.690237
0.681153
0.712623
0.796326
0.926423
1.07404
1.215492
1.338127
1.42475
1.453625
1.435132
1.372192
1.247611
1.096425
0.944916
0.810926
0.707756
0.662336
0.669149
0.721382
0.836231
0.980928
1.127895
1.260912
1.366677
1.424101
1.423128
1.383547
1.300817
1.171045
1.028619
0.904686
0.803788
0.727547
0.700943
0.714245
0.778482
0.904686
1.050681
1.190186
1.317688
1.420857
1.466602
1.455896
1.405933
1.294653
1.151579
1.00234
0.867377
0.758368
0.692184
0.681802
0.715543
0.801841
0.932263
1.076635
1.215816
1.336829
1.422804
1.452327
1.433834
1.368624
1.24534
1.095128
0.946214
0.812548
0.70873
0.660714
0.667202
0.712947
0.821632
0.961462
1.121082
1.267076
1.374788
1.43935
1.449083
1.417937
1.331638
1.197324
1.045814
0.901442
0.778807
0.692508
0.667202
0.686993
0.750581
0.87127
1.015317
1.158716
1.286867
1.386467
1.430914
1.427021
1.383872
1.277134
1.13633
0.987741
0.850182
0.742795
0.684722
0.678882
0.711649
0.796651
0.925774
1.071444
1.21095
1.330341
1.414368
1.439999
1.419559
1.351753
1.226198
1.076311
0.932587
0.808979
0.708405
0.662011
0.677584
0.727222
0.833311
0.972168
1.118162
1.25929
1.371543
1.439025
1.449083
1.417288
1.326123
1.191808
1.04549
0.903064
0.781727
0.693157
0.669149
0.689588
0.758368
0.881976
1.025375
1.166827
1.295951
1.397822
1.446163
1.443567
1.394903
1.282974
1.137953
0.987416
0.845315
0.729818
0.671096
0.674664
0.711974
0.796326
0.926423
1.073066
1.21679
1.338451
1.426372
1.454922
1.43643
1.369597
1.242744
1.094154
0.948485
0.818063
0.71684
0.674015
0.683748
0.732413
0.841098
0.978657
1.124651
1.261886
1.373166
1.438701
1.446812
1.414693
1.324176
1.18824
1.038352
0.895278
0.774265
0.690561
0.668176
0.691535
0.758043
0.880354
1.024402
1.166827
1.299195
1.402364
1.450705
1.443892
1.396525
1.286542
1.14217
0.992283
0.853102
0.741497
0.676286
0.667202
0.700294
0.788215
0.919286
1.064956
1.202515
1.31931
1.402689
1.43059
1.41372
1.351753
1.236255
1.091234
0.944591
0.810601
0.707107
0.662011
0.666878
0.710676
0.81709
0.958866
1.107456
1.246962
1.363108
1.431563
1.440972
1.405609
1.315092
1.183698
1.035432
0.890411
0.768425
0.681477
0.662011
0.684397
0.748959
0.867052
1.005909
1.147037
1.275836
1.375761
1.414693
1.408853
1.36765
1.267076
1.133411
0.98839
0.848884
0.73436
0.669473
0.662985
0.696077
0.783998
0.917988
1.065929
1.207381
1.324176
1.40788
1.429617
1.405933
1.334234
1.203163
1.048734
0.8969
0.765181
0.670771
0.637679
0.65974
0.724627
0.839151
0.97671
1.118162
1.251179
1.358891
1.419884
1.426048
1.391334
1.299844
1.165529
1.013695
0.869323
0.746364
0.658443
0.631515
0.650981
0.721707
0.848235
0.998447
1.148659
1.278432
1.377059
1.419235
1.412422
1.362784
1.252477
1.112971
0.966004
0.827472
0.715218
0.650656
0.643843
0.676935
0.764856
0.894304
1.03965
1.178507
1.295626
1.377708
1.401391
1.379654
1.314119
1.193755
1.051005
0.90566
0.775238
0.676611
0.638004
0.644492
0.690561
0.795353
0.930641
1.071769
1.205434
1.315417
1.384196
1.399445
1.369921
1.280054
1.146388
0.995203
0.849533
0.727222
0.640275
0.61724
0.648385
0.723978
0.847262
0.989039
1.132113
1.258317
1.356295
1.399769
1.395227
1.351104
1.244366
1.101941
0.953351
0.813845
0.702241
0.63995
0.633786
0.667851
0.755772
0.886843
1.031863
1.172667
1.291733
1.374788
1.398796
1.379005
1.312172
1.18824
1.039325
0.893007
0.761936
0.660714
0.622431
0.630217
0.676935
0.785944
0.928694
1.074688
1.215492
1.327421
1.389063
1.395876
1.360513
1.266103
1.12822
0.976061
0.834933
0.709054
0.632488
0.618862
0.647412
0.718463
0.844342
0.988714
1.129193
1.256046
1.3537
1.398147
1.396525
1.352078
1.242744
1.100643
0.952702
0.813521
0.703539
0.641897
0.636057
0.671744
0.761288
0.891709
1.036081
1.175587
1.29368
1.375437
1.398796
1.377383
1.308604
1.182724
1.036081
0.891709
0.763559
0.667851
0.628271
0.635408
0.6831
0.790811
0.930965
1.084097
1.233011
1.345913
1.408853
1.41372
1.375437
1.284596
1.146712
0.994878
0.848884
0.728844
0.647412
0.626
0.652603
0.727222
0.850182
0.993581
1.134059
1.261561
1.357593
1.399445
1.396525
1.349807
1.242744
1.100643
0.953027
0.816765
0.708405
0.646439
0.63995
0.673367
0.762585
0.891385
1.034783
1.172991
1.288813
1.367001
1.386792
1.363108
1.295951
1.178182
1.037703
0.899495
0.780429
0.690237
0.652603
0.65974
0.707107
0.815468
0.951729
1.094154
1.228469
1.336505
1.395876
1.403338
1.368948
1.276485
1.143144
0.994878
0.851155
0.731115
0.647412
0.625026
0.646763
0.719111
0.842395
0.988714
1.134708
1.261237
1.360188
1.404311
1.395876
1.345264
1.231389
1.090261
0.944591
0.807032
0.696077
0.638004
0.635408
0.670122
0.761288
0.891385
1.037379
1.177858
1.2966
1.379654
1.402364
1.381925
1.313146
1.187915
1.039974
0.894629
0.766478
0.669149
0.630217
0.638328
0.687966
0.797948
0.938752
1.083773
1.220034
1.330016
1.391658
1.400742
1.367975
1.275836
1.140873
0.990336
0.844342
0.72268
0.639301
0.617564
0.64287
0.71976
0.852777
0.99942
1.140224
1.26513
1.359215
1.398796
1.393929
1.348509
1.237878
1.099994
0.954649
0.820983
0.710676
0.654874
0.65163
0.686668
0.776211
0.904362
1.049058
1.187591
1.305035
1.387765
1.412097
1.394903
1.327421
1.203812
1.057169
0.913446
0.785295
0.686993
0.645141
0.656496
0.708405
0.819361
0.957244
1.102914
1.238851
1.349482
1.412097
1.421506
1.388738
1.298871
1.164556
1.016615
0.873865
0.753826
0.673691
0.656496
0.682126
0.752852
0.875812
1.01986
1.162609
1.288813
1.388738
1.434483
1.429617
1.380303
1.266752
1.123678
0.976061
0.839476
0.730467
0.670447
0.666229
0.702241
0.795353
0.926099
1.075986
1.218736
1.33618
1.415666
1.438701
1.41891
1.349158
1.227171
1.079555
0.934858
0.805086
0.711974
0.679531
0.695428
0.746364
0.856022
0.990012
1.13114
1.262859
1.372841
1.435781
1.447785
1.418262
1.32515
1.190186
1.039974
0.89982
0.7827
0.704188
0.686019
0.708405
0.781402
0.906957
1.051978
1.195701
1.321905
1.417613
1.455247
1.445838
1.394578
1.281676
1.138926
0.995527
0.864781
0.75999
0.702565
0.696401
0.733386
0.82812
0.959515
1.104212
1.243393
1.361486
1.441621
1.464655
1.444216
1.374463
1.247286
1.098048
0.952378
0.824552
0.728195
0.688939
0.697699
0.748959
0.860564
1.002016
1.149632
1.287516
1.3962
1.454274
1.45914
1.424426
1.335207
1.203488
1.049383
0.900793
0.775887
0.694455
0.676935
0.701268
0.777509
0.912473
1.075986
1.231713
1.360188
1.453625
1.492557
1.483148
1.428968
1.311524
1.165205
1.016291
0.879381
0.768749
0.711001
0.710676
0.75123
0.845964
0.975088
1.118487
1.261237
1.379654
1.460113
1.482499
1.459464
1.387116
1.259939
1.112323
0.965355
0.838502
0.743119
0.70581
0.71684
0.767776
0.878732
1.017588
1.161312
1.2966
1.40496
1.463682
1.469846
1.434159
1.338776
1.200892
1.054249
0.913122
0.796651
0.718138
0.698997
0.72268
0.793406
0.917015
1.060413
1.203488
1.329367
1.426697
1.465953
1.458167
1.405609
1.291409
1.14801
1.001691
0.864457
0.756097
0.698348
0.695428
0.732413
0.824552
0.95692
1.101292
1.240473
1.356944
1.434483
1.454598
1.430914
1.358891
1.235607
1.09091
0.946538
0.818712
0.724627
0.687966
0.697699
0.747337
0.854399
0.985794
1.121082
1.246962
1.346562
1.401391
1.415991
1.403338
1.323528
1.201217
1.06236
0.921557
0.804112
0.727222
0.706134
0.723329
0.790162
0.911824
1.055547
1.19343
1.311524
1.403987
1.446487
1.45038
1.411124
1.300493
1.15677
1.005585
0.862186
0.753177
0.69705
0.698672
0.745715
0.845964
0.98255
1.127571
1.263832
1.375437
1.449407
1.466602
1.443567
1.371543
1.241122
1.092208
0.946862
0.816441
0.722031
0.684722
0.698672
0.749608
0.863808
1.005585
1.148659
1.281351
1.389387
1.447785
1.454274
1.416315
1.318012
1.1824
1.034783
0.893331
0.775887
0.698023
0.679206
0.703214
0.775563
0.900144
1.046138
1.189213
1.314119
1.409178
1.446812
1.438376
1.389387
1.271618
1.127895
0.981901
0.848235
0.741822
0.686344
0.684722
0.721707
0.818712
0.954649
1.09967
1.237878
1.352726
1.427346
1.444541
1.419235
1.342669
1.221007
1.077284
0.940374
0.820659
0.72852
0.692508
0.704836
0.756745
0.86543
1.003962
1.141197
1.274538
1.385494
1.444541
1.449732
1.414044
1.327096
1.198297
1.044516
0.900793
0.782051
0.702241
0.681802
0.704188
0.780105
0.91377
1.072417
1.220358
1.34494
1.435781
1.4679
1.452976
1.396849
1.278756
1.134059
0.988065
0.857644
0.75415
0.701917
0.702565
0.742146
0.838827
0.97087
1.114918
1.253775
1.367975
1.443243
1.461411
1.438052
1.363433
1.235282
1.08799
0.944267
0.819361
0.725924
0.691535
0.703539
0.758692
0.871594
1.013046
1.156445
1.290111
1.395876
1.452327
1.453949
1.418262
1.320608
1.183049
1.036081
0.89398
0.777185
0.702565
0.685371
0.709378
0.785944
0.910202
1.055547
1.196999
1.321905
1.416315
1.454274
1.440647
1.385818
1.269023
1.124327
0.978008
0.84564
0.741173
0.686344
0.685046
0.721382
0.816765
0.948809
1.092857
1.232038
1.351429
1.431888
1.452651
1.427995
1.352078
1.222629
1.071769
0.923179
0.793082
0.69705
0.660389
0.669798
0.723329
0.842395
0.98839
1.136655
1.271943
1.385494
1.444865
1.445514
1.40496
1.315092
1.184671
1.037054
0.895278
0.778158
0.704512
0.688615
0.713272
0.784647
0.907282
1.04841
1.190186
1.310875
1.402364
1.437403
1.429617
1.373814
1.254748
1.113296
0.968924
0.834933
0.728195
0.673691
0.669798
0.711001
0.810277
0.943294
1.087017
1.228794
1.348184
1.422804
1.440323
1.414368
1.337478
1.211274
1.064307
0.919286
0.792757
0.699646
0.665905
0.676611
0.731764
0.845964
0.987741
1.13114
1.264805
1.375761
1.434483
1.439025
1.401391
1.301791
1.163258
1.012398
0.869323
0.752852
0.678233
0.661038
0.686344
0.76583
0.89398
1.038677
1.176236
1.296275
1.387765
1.425399
1.416964
1.367975
1.258966
1.121407
0.977683
0.841747
0.73436
0.682126
0.679855
0.720085
0.818387
0.95108
1.094479
1.23366
1.350131
1.424101
1.441945
1.415991
1.338127
1.20803
1.059116
0.914095
0.789513
0.698023
0.666229
0.68018
0.736631
0.853751
0.993905
1.136655
1.265779
1.367975
1.423777
1.430914
1.392956
1.29368
1.160663
1.021157
0.88522
0.769398
0.694779
0.677584
0.703863
0.780105
0.905011
1.049383
1.189537
1.311848
1.402364
1.435132
1.422479
1.366353
1.251504
1.109727
0.965355
0.835582
0.731115
0.679531
0.677584
0.71684
0.81417
0.947187
1.091883
1.234633
1.353375
1.428968
1.44227
1.417613
1.337478
1.208354
1.056845
0.911175
0.785295
0.701592
0.675638
0.69121
0.749932
0.863483
1.000394
1.138277
1.264157
1.365379
1.415991
1.422155
1.397174
1.306333
1.17364
1.028295
0.882625
0.772967
0.698348
0.6831
0.70873
0.785295
0.910202
1.055223
1.196675
1.320283
1.411449
1.445189
1.432861
1.374788
1.255072
1.108754
0.962435
0.828769
0.723653
0.673042
0.672718
0.712623
0.81417
0.950107
1.096425
1.235607
1.3537
1.428319
1.445189
1.418262
1.34202
1.214843
1.066578
0.920908
0.796002
0.70581
0.675962
0.692832
0.753826
0.871594
1.011749
1.155472
1.287191
1.391009
1.446163
1.446163
1.401067
1.296275
1.154823
1.003314
0.861537
0.754474
0.69705
0.69705
0.726249
0.803788
0.926748
1.070471
1.208679
1.334883
1.423453
1.455896
1.448109
1.38517
1.26221
1.115242
0.966653
0.832338
0.72852
0.680504
0.684073
0.7256
0.825525
0.959515
1.103887
1.243717
1.357593
1.42767
1.441296
1.412746
1.330665
1.198946
1.050681
0.906308
0.782051
0.693806
0.663958
0.679531
0.739875
0.85959
1.00234
1.144766
1.275512
1.378357
1.428319
1.426697
1.382574
1.273565
1.128544
0.976061
0.834609
0.724951
0.656172
0.654225
0.69705
0.784647
0.909877
1.052952
1.193106
1.315741
1.405284
1.436105
1.422155
1.361811
1.240473
1.092208
0.944591
0.805735
0.712298
0.664607
0.666229
0.706134
0.806384
0.940049
1.083124
1.220358
1.338451
1.416964
1.434808
1.407555
1.325799
1.194404
1.045165
0.901766
0.778158
0.691535
0.663634
0.679531
0.73728
0.854075
0.995852
1.13925
1.269023
1.371219
1.420208
1.420208
1.378357
1.275836
1.142819
0.998123
0.857319
0.741822
0.670771
0.658443
0.689913
0.775238
0.905011
1.049707
1.189862
1.313146
1.404635
1.43643
1.419559
1.35662
1.232687
1.082475
0.936481
0.803788
0.705485
0.664931
0.672718
0.714894
0.815792
0.948485
1.092857
1.231065
1.349158
1.419884
1.434159
1.40496
1.320283
1.189537
1.041921
0.894629
0.772318
0.685046
0.658767
0.67434
0.733711
0.850182
0.991958
1.136006
1.27097
1.37933
1.432212
1.432212
1.390685
1.285893
1.146063
0.997149
0.856346
0.74247
0.672718
0.661038
0.690237
0.773291
0.902415
1.048734
1.191484
1.314443
1.403662
1.435781
1.422155
1.361811
1.241122
1.095128
0.95108
0.819685
0.718138
0.670122
0.673691
0.717489
0.82293
0.960813
1.107132
1.246637
1.362784
1.434159
1.448758
1.419559
1.338451
1.207057
1.057494
0.911824
0.789837
0.701592
0.675638
0.695103
0.755123
0.871594
1.014344
1.158716
1.289787
1.395876
1.45038
1.454922
1.417937
1.315417
1.175911
1.022131
0.877434
0.75999
0.688615
0.677909
0.717489
0.810277
0.943294
1.090261
1.231389
1.354024
1.439999
1.469846
1.454922
1.394254
1.272267
1.125949
0.982874
0.854399
0.751879
0.704836
0.706134
0.747337
0.849208
0.983523
1.128544
1.271943
1.392956
1.465629
1.481526
1.452976
1.368624
1.238202
1.088963
0.940049
0.813521
0.724627
0.69705
0.714894
0.778482
0.905011
1.063333
1.217114
1.354024
1.457518
1.506831
1.502289
1.458491
1.351753
1.209976
1.062036
0.922854
0.809952
0.741822
0.730791
0.760314
0.844666
0.973141
1.118811
1.26221
1.385818
1.47893
1.504885
1.490285
1.429292
1.30763
1.162285
1.016615
0.88522
0.782051
0.736955
0.741822
0.784971
0.890736
1.028619
1.172018
1.311848
1.425724
1.495152
1.5104
1.483797
1.399769
1.270321
1.122704
0.97963
0.857644
0.77102
0.745715
0.763883
0.828445
0.949458
1.09383
1.236904
1.368624
1.470171
1.518835
1.51624
1.47082
1.361811
1.220034
1.071444
0.932263
0.825201
0.766803
0.760639
0.792433
0.875812
1.002665
1.148659
1.291084
1.411449
1.49645
1.522404
1.502289
1.434159
1.306657
1.153525
1.003962
0.877434
0.793406
0.758043
0.76583
0.813521
0.927072
1.069822
1.214519
1.351429
1.461411
1.526946
1.537977
1.507805
1.419559
1.285893
1.134708
0.98839
0.863483
0.773616
0.745066
0.75999
0.821307
0.943618
1.089937
1.233984
1.367001
1.469522
1.516564
1.513969
1.467575
1.358242
1.215492
1.065929
0.925125
0.810926
0.744417
0.73436
0.763559
0.850506
0.980279
1.126273
1.265779
1.385494
1.470495
1.497099
1.480553
1.415017
1.290111
1.142495
0.99942
0.868999
0.765505
0.71976
0.723005
0.767452
0.873216
1.010127
1.155148
1.292058
1.40496
1.470495
1.482175
1.453949
1.367001
1.232038
1.084746
0.943294
0.823254
0.736631
0.709703
0.727222
0.789513
0.906633
1.046787
1.185969
1.311524
1.408529
1.452003
1.452327
1.415017
1.31055
1.173316
1.035757
0.904686
0.795353
0.731115
0.719111
0.746688
0.828445
0.957569
1.103238
1.243393
1.363757
1.449407
1.477957
1.460762
1.395227
1.27097
1.119784
0.973141
0.846613
0.749284
0.704512
0.706783
0.752203
0.860239
0.997474
1.140873
1.276485
1.387441
1.453949
1.465304
1.437403
1.352726
1.223927
1.072093
0.925125
0.803464
0.716516
0.688939
0.706134
0.769723
0.887816
1.031539
1.174289
1.303088
1.405609
1.448109
1.442594
1.397174
1.287516
1.148334
1.001691
0.862186
0.751879
0.688939
0.68018
0.710676
0.797299
0.926423
1.072093
1.213545
1.335532
1.420533
1.449083
1.432212
1.367001
1.24242
1.095128
0.949458
0.818712
0.717489
0.67434
0.68018
0.726898
0.83396
0.971195
1.115567
1.253126
1.362459
1.426697
1.437728
1.408529
1.322554
1.194728
1.052952
0.910202
0.790162
0.707756
0.681477
0.700943
0.767452
0.887816
1.03381
1.17656
1.304386
1.406582
1.450705
1.446487
1.399769
1.289462
1.149308
0.996825
0.857644
0.746688
0.682775
0.673691
0.706459
0.797948
0.929019
1.073715
1.221332
1.338451
1.422804
1.450056
1.435781
1.368299
1.251504
1.118162
0.983523
0.855048
0.752203
0.705485
0.708405
0.753501
0.859266
0.997474
1.143468
1.282974
1.396849
1.461735
1.471144
1.437403
1.346562
1.214843
1.070471
0.929343
0.810926
0.728844
0.709054
0.729169
0.794055
0.912797
1.054249
1.196999
1.324501
1.424101
1.468873
1.468873
1.429617
1.323528
1.181426
1.034459
0.895602
0.783024
0.721707
0.714245
0.746364
0.832662
0.963084
1.110052
1.250206
1.37057
1.457842
1.488663
1.473739
1.407231
1.282974
1.136006
0.989363
0.861537
0.757719
0.713921
0.718463
0.767127
0.878732
1.018886
1.164232
1.30244
1.415342
1.479904
1.49061
1.457193
1.366028
1.232687
1.081826
0.936805
0.815792
0.732413
0.707756
0.727871
0.798922
0.925125
1.070795
1.214194
1.34202
1.440323
1.484121
1.481526
1.432212
1.319959
1.176236
1.028944
0.892682
0.784322
0.723653
0.716192
0.749284
0.839151
0.969897
1.119136
1.262534
1.383547
1.467251
1.492232
1.473415
1.403013
1.275187
1.126598
0.980928
0.847911
0.747337
0.706783
0.720409
0.77394
0.88814
1.031539
1.177858
1.31347
1.423777
1.482499
1.49061
1.458167
1.365704
1.232362
1.087017
0.946214
0.826498
0.743119
0.726573
0.747661
0.812548
0.931939
1.07404
1.21679
1.344616
1.446163
1.496125
1.494179
1.444865
1.330665
1.185969
1.037054
0.897549
0.78562
0.723329
0.715867
0.749932
0.840773
0.97379
1.120758
1.26221
1.381276
1.463033
1.486717
1.469522
1.407555
1.289462
1.144117
0.999745
0.869323
0.768101
0.725276
0.733711
0.782376
0.891709
1.030566
1.174938
1.312497
1.427021
1.493205
1.503587
1.469846
1.377059
1.239175
1.092857
0.949782
0.829743
0.749608
0.727222
0.748635
0.816765
0.940049
1.086692
1.229118
1.356944
1.455896
1.497099
1.489637
1.440647
1.325799
1.184671
1.044192
0.912473
0.805735
0.746364
0.739875
0.773291
0.864457
0.994554
1.140548
1.282325
1.402364
1.484121
1.509427
1.489637
1.421506
1.296275
1.14801
1.003314
0.874839
0.77686
0.737928
0.747013
0.796002
0.906957
1.046787
1.191484
1.327745
1.437403
1.500018
1.509427
1.476659
1.383872
1.249882
1.101616
0.955622
0.834285
0.752203
0.730467
0.750906
0.818063
0.941347
1.090586
1.236255
1.363757
1.460762
1.504885
1.500343
1.453949
1.343967
1.201217
1.054898
0.918312
0.807032
0.746364
0.737604
0.768425
0.858941
0.991958
1.139899
1.283947
1.403987
1.480228
1.499045
1.473091
1.400418
1.278756
1.139575
0.999096
0.871919
0.772967
0.733062
0.74247
0.792433
0.906633
1.048734
1.197648
1.336505
1.443892
1.50456
1.509751
1.472442
1.375437
1.238526
1.087017
0.941996
0.822605
0.742795
0.721058
0.74247
0.811574
0.934534
1.077933
1.219385
1.346238
1.442594
1.482175
1.475037
1.424101
1.309577
1.166178
1.018886
0.881327
0.771345
0.711974
0.706459
0.742146
0.832987
0.963733
1.1107
1.250855
1.36765
1.448109
1.471144
1.449407
1.378032
1.250855
1.102265
0.955622
0.827796
0.73144
0.692832
0.702565
0.756421
0.86543
1.004936
1.149308
1.285245
1.397498
1.459464
1.466602
1.431563
1.33618
1.199595
1.050681
0.908255
0.790811
0.711974
0.692184
0.716192
0.787566
0.912473
1.056845
1.200244
1.327745
1.424101
1.463033
1.455247
1.403987
1.290111
1.14509
0.994554
0.853426
0.740848
0.680504
0.674664
0.714569
0.819361
0.962435
1.114918
1.255397
1.372192
1.447136
1.464655
1.438701
1.360513
1.227496
1.072093
0.925125
0.809628
0.709703
0.673042
0.687317
0.756097
0.878732
1.022455
1.165854
1.299195
1.404635
1.45914
1.461411
1.422479
1.320608
1.184671
1.029592
0.885869
0.767127
0.687317
0.668176
0.691535
0.766154
0.895927
1.046138
1.189862
1.314768
1.408529
1.445838
1.436105
1.382574
1.265454
1.120758
0.973466
0.836556
0.730467
0.674664
0.671096
0.707756
0.801193
0.932587
1.076959
1.215816
1.337478
1.422479
1.446487
1.425075
1.35078
1.22198
1.073391
0.929019
0.802166
0.706783
0.669149
0.679855
0.733711
0.846613
0.986767
1.129517
1.267725
1.379979
1.438376
1.443567
1.408529
1.309901
1.172342
1.022455
0.881976
0.763559
0.687966
0.670447
0.69413
0.769074
0.8969
1.040623
1.183049
1.310875
1.404311
1.441296
1.433185
1.380303
1.26513
1.120433
0.974439
0.840449
0.732738
0.677909
0.676611
0.714569
0.810926
0.945889
1.090261
1.23074
1.348184
1.425399
1.446163
1.423453
1.350455
1.225874
1.076311
0.935183
0.809952
0.715867
0.681153
0.693806
0.747337
0.86251
1.003962
1.148659
1.283298
1.391009
1.44746
1.450705
1.415991
1.321257
1.187591
1.041596
0.898847
0.780753
0.703863
0.685371
0.70873
0.782376
0.913122
1.061711
1.206083
1.330016
1.423128
1.461087
1.450705
1.397498
1.27908
1.132113
0.984172
0.852128
0.74831
0.697699
0.701268
0.747661
0.853102
0.990661
1.138277
1.272916
1.388089
1.461411
1.479904
1.455247
1.378357
1.248259
1.097723
0.952378
0.825525
0.732089
0.697699
0.710676
0.766154
0.880678
1.021157
1.165205
1.298871
1.405609
1.46206
1.465629
1.428319
1.328718
1.190511
1.041272
0.89982
0.782051
0.707107
0.691535
0.717489
0.794055
0.91961
1.06528
1.206732
1.330665
1.423128
1.457193
1.445189
1.390685
1.275187
1.133086
0.988065
0.854399
0.749608
0.697374
0.696077
0.735982
0.833311
0.966653
1.115891
1.258317
1.374788
1.449732
1.467251
1.439025
1.359539
1.231713
1.082799
0.936481
0.811899
0.720409
0.69121
0.703863
0.762585
0.881976
1.024726
1.167151
1.298222
1.402364
1.456545
1.455896
1.416639
1.321257
1.190186
1.042894
0.90274
0.786918
0.712298
0.695103
0.719436
0.793731
0.917015
1.067227
1.217114
1.343967
1.437403
1.475686
1.47082
1.419559
1.30244
1.154499
1.006233
0.872568
0.767127
0.715218
0.71684
0.754799
0.854399
0.987092
1.132113
1.269996
1.386792
1.462384
1.483472
1.461735
1.385818
1.258641
1.1107
0.96276
0.83688
0.744417
0.715543
0.737928
0.796651
0.912797
1.051978
1.19343
1.32515
1.429617
1.483472
1.487041
1.448758
1.352402
1.218736
1.07112
0.92837
0.813845
0.747661
0.737604
0.76583
0.843693
0.970546
1.114918
1.25637
1.379979
1.47082
1.505534
1.493205
1.436754
1.317363
1.17364
1.02797
0.89398
0.790811
0.744093
0.746364
0.787566
0.888789
1.023753
1.169423
1.309577
1.425399
1.499045
1.51624
1.489637
1.411449
1.278432
1.126598
0.979954
0.855048
0.763883
0.732413
0.751555
0.813845
0.932587
1.075337
1.216141
1.348509
1.455571
1.510076
1.514293
1.478606
1.381276
1.244366
1.095452
0.95692
0.838827
0.768749
0.756421
0.786918
0.864132
0.990661
1.135357
1.279729
1.404635
1.496774
1.535057
1.524675
1.46498
1.347211
1.201217
1.054574
0.920583
0.814819
0.76291
0.765181
0.807032
0.907931
1.043543
1.18824
1.327421
1.441945
1.508129
1.529542
1.503587
1.423453
1.294329
1.148659
1.009478
0.88814
0.796326
0.764207
0.779131
0.837853
0.955946
1.099345
1.244366
1.377059
1.480877
1.53311
1.53311
1.491908
1.388738
1.250206
1.100967
0.959191
0.843369
0.771994
0.756097
0.784322
0.85959
0.989039
1.143468
1.294004
1.419559
1.509427
1.542195
1.52792
1.46498
1.343318
1.199919
1.054898
0.923179
0.819036
0.769074
0.771669
0.815468
0.91961
1.054249
1.196999
1.337803
1.449407
1.52208
1.537328
1.509427
1.425724
1.291084
1.135682
0.988065
0.862186
0.773616
0.746688
0.769723
0.836556
0.959191
1.10778
1.254099
1.384521
1.487041
1.535706
1.533435
1.490285
1.384521
1.243069
1.093181
0.952053
0.837205
0.76583
0.751555
0.780105
0.860564
0.987416
1.132437
1.274863
1.397174
1.487041
1.517538
1.503587
1.443567
1.32223
1.17656
1.027646
0.895602
0.79146
0.74247
0.745066
0.78562
0.88814
1.021806
1.16488
1.302115
1.413395
1.483148
1.497423
1.469197
1.391983
1.26513
1.117513
0.981577
0.857319
0.767452
0.735333
0.749608
0.809303
0.931614
1.075013
1.216465
1.345913
1.446487
1.494828
1.493205
1.450056
1.348833
1.213545
1.069498
0.93421
0.821956
0.751879
0.738902
0.765505
0.84564
0.969897
1.111025
1.249557
1.369921
1.457842
1.493205
1.485095
1.437079
1.32223
1.175911
1.030241
0.8969
0.792757
0.743444
0.744742
0.78562
0.886518
1.022131
1.168125
1.306982
1.420533
1.491908
1.508778
1.482824
1.401067
1.27097
1.120758
0.973141
0.850506
0.761936
0.733711
0.754474
0.810601
0.929343
1.071444
1.214194
1.345589
1.448758
1.498396
1.498072
1.455247
1.349807
1.209976
1.061711
0.921557
0.807357
0.739875
0.728195
0.756097
0.839476
0.968599
1.114269
1.256046
1.377059
1.465953
1.496125
1.482175
1.420208
1.298222
1.151579
1.005909
0.87419
0.77102
0.723978
0.72852
0.771345
0.876136
1.013046
1.158067
1.296275
1.4108
1.480228
1.493205
1.465629
1.381601
1.249557
1.100319
0.955622
0.833311
0.74539
0.718463
0.735657
0.797299
0.917664
1.060738
1.203488
1.335532
1.439025
1.488014
1.489961
1.443243
1.337478
1.196675
1.04841
0.908255
0.793406
0.721058
0.70581
0.731115
0.810926
0.934858
1.082475
1.234958
1.365379
1.455571
1.487041
1.469846
1.407231
1.285893
1.137304
0.992607
0.855048
0.750581
0.701917
0.703863
0.74831
0.855373
0.996825
1.145739
1.282325
1.392632
1.45914
1.469522
1.438052
1.352078
1.219385
1.068524
0.922854
0.798597
0.711649
0.686344
0.708405
0.772318
0.89106
1.032837
1.174289
1.30244
1.403338
1.450056
1.447136
1.401716
1.294004
1.15677
1.009802
0.871919
0.760963
0.691535
0.68018
0.714894
0.800868
0.930316
1.072742
1.21387
1.332287
1.416639
1.442918
1.42475
1.361811
1.241122
1.096101
0.954
0.826498
0.727547
0.684722
0.690886
0.735333
0.840449
0.975412
1.119136
1.255072
1.367326
1.435132
1.445189
1.41372
1.326123
1.191159
1.037703
0.895602
0.777509
0.690561
0.660389
0.678882
0.749932
0.876136
1.024402
1.172991
1.308279
1.409178
1.452327
1.445838
1.3962
1.288813
1.149632
1.001691
0.861537
0.748959
0.683424
0.676935
0.713921
0.801517
0.930316
1.075013
1.217114
1.337478
1.419559
1.444865
1.426048
1.363108
1.244366
1.100319
0.953351
0.820659
0.719111
0.67142
0.67726
0.722356
0.835907
0.976386
1.123678
1.263508
1.375112
1.441296
1.453949
1.422479
1.338127
1.206408
1.055871
0.911175
0.789189
0.705485
0.677584
0.69705
0.760639
0.880354
1.02505
1.168449
1.296924
1.397498
1.442594
1.441945
1.399769
1.292382
1.151579
0.99942
0.862186
0.749608
0.6831
0.673367
0.703214
0.793082
0.92837
1.077608
1.218736
1.338451
1.423128
1.449083
1.431239
1.366353
1.241446
1.093505
0.948809
0.818063
0.717814
0.674015
0.68018
0.727222
0.835258
0.973466
1.117838
1.254748
1.36473
1.431563
1.443567
1.411449
1.32515
1.194404
1.042245
0.897224
0.774914
0.689913
0.664282
0.683424
0.748959
0.874839
1.02505
1.172018
1.299844
1.400093
1.441296
1.438376
1.391334
1.280054
1.14217
0.994878
0.858293
0.747661
0.687966
0.684073
0.718787
0.807357
0.936481
1.08215
1.223927
1.345589
1.43059
1.457842
1.439674
1.373814
1.250206
1.103563
0.959515
0.831689
0.731764
0.689913
0.696726
0.744742
0.853751
0.992283
1.13633
1.273565
1.38517
1.450056
1.460113
1.428319
1.3391
1.205434
1.059116
0.91669
0.797948
0.714569
0.69121
0.713272
0.781078
0.904686
1.049707
1.192782
1.321581
1.421506
1.465953
1.462384
1.415991
1.306008
1.163583
1.016615
0.877758
0.768749
0.705485
0.69997
0.733062
0.821956
0.954
1.098372
1.240149
1.360837
1.443567
1.469846
1.450705
1.384196
1.258966
1.111349
0.966653
0.836556
0.737604
0.694779
0.704512
0.757394
0.869323
1.005585
1.147037
1.278107
1.386143
1.444216
1.447136
1.406907
1.311848
1.179804
1.034459
0.901118
0.792109
0.729818
0.72268
0.747986
0.813521
0.931614
1.070146
1.208679
1.330665
1.426372
1.468873
1.46206
1.414044
1.30244
1.161312
1.014993
0.878083
0.767776
0.706134
0.69997
0.733711
0.823903
0.953027
1.098372
1.239175
1.358242
1.43935
1.463358
1.441621
1.371543
1.24534
1.094154
0.949458
0.821632
0.723653
0.686019
0.696401
0.748635
0.857319
0.996176
1.140224
1.276809
1.386467
1.448109
1.45622
1.423453
1.330016
1.195377
1.046787
0.904362
0.786269
0.705485
0.685046
0.706783
0.775887
0.897873
1.041272
1.183698
1.312172
1.409826
1.449407
1.440972
1.392307
1.280378
1.137953
0.995527
0.865106
0.758368
0.698348
0.692508
0.72852
0.821632
0.952378
1.097074
1.237553
1.355646
1.43643
1.457193
1.435132
1.362784
1.233011
1.084421
0.937454
0.81125
0.717489
0.684397
0.697699
0.749608
0.862186
1.004936
1.151903
1.287516
1.396525
1.455247
1.460762
1.424426
1.331638
1.193755
1.043543
0.900144
0.777185
0.687966
0.664607
0.6831
0.749608
0.869972
1.024402
1.184995
1.330341
1.437728
1.481201
1.472766
1.419235
1.30244
1.155472
1.004936
0.867052
0.757394
0.698023
0.691859
0.727222
0.820983
0.951729
1.096425
1.235282
1.349807
1.425075
1.444216
1.422804
1.35078
1.222629
1.075662
0.942969
0.826174
0.732413
0.692832
0.699321
0.749608
0.858941
0.993905
1.133735
1.265779
1.372841
1.429292
1.437403
1.411449
1.320932
1.186293
1.042894
0.894629
0.775887
0.696726
0.676286
0.700619
0.772643
0.896575
1.040623
1.183049
1.30763
1.404635
1.442918
1.435132
1.38225
1.266752
1.120433
0.975088
0.838502
0.730467
0.672393
0.669798
0.706783
0.79957
0.930965
1.076311
1.216141
1.332612
1.414693
1.443243
1.423453
1.352726
1.223603
1.07404
0.92837
0.802166
0.70873
0.669473
0.680504
0.73436
0.847586
0.987741
1.131464
1.266428
1.374788
1.434159
1.440323
1.404635
1.308279
1.172667
1.022779
0.879056
0.759665
0.68018
0.663309
0.688939
0.76291
0.89106
1.038028
1.183373
1.309901
1.406907
1.444216
1.434159
1.377708
1.260912
1.115891
0.971519
0.838178
0.732089
0.679531
0.681153
0.721382
0.81709
0.949458
1.094154
1.231065
1.345589
1.425399
1.439674
1.414693
1.34494
1.229767
1.088963
0.945565
0.819361
0.724302
0.68829
0.69997
0.750581
0.86251
1.00234
1.145739
1.281351
1.389712
1.451354
1.469522
1.439025
1.340398
1.199919
1.048085
0.903064
0.785295
0.707432
0.689913
0.717489
0.791784
0.91669
1.061387
1.202515
1.328718
1.422479
1.461411
1.4533
1.403662
1.286542
1.139575
0.990985
0.854399
0.747337
0.692832
0.69997
0.741822
0.840124
0.977359
1.121407
1.264805
1.383872
1.459464
1.477957
1.453625
1.378032
1.249557
1.099345
0.954324
0.828445
0.734035
0.69997
0.712947
0.767127
0.879381
1.02505
1.169098
1.303088
1.410475
1.467251
1.471793
1.434483
1.334883
1.197648
1.048734
0.906957
0.790486
0.716192
0.701917
0.729493
0.806384
0.933561
1.078906
1.221332
1.345913
1.439674
1.475686
1.464331
1.408853
1.289787
1.14509
0.997474
0.863483
0.75707
0.704188
0.704836
0.744093
0.838827
0.97087
1.112647
1.249233
1.362784
1.435781
1.460438
1.449083
1.382574
1.255072
1.105834
0.956271
0.826823
0.730467
0.700619
0.712623
0.770047
0.89106
1.032512
1.175262
1.306982
1.413395
1.467575
1.465953
1.425724
1.322554
1.1824
1.038677
0.905335
0.794055
0.720734
0.704512
0.730142
0.806384
0.931939
1.076311
1.218412
1.340722
1.432537
1.465953
1.452976
1.395227
1.275836
1.129517
0.981252
0.84564
0.738577
0.683748
0.681153
0.71976
0.818387
0.95108
1.098696
1.245664
1.36765
1.443892
1.462709
1.437403
1.357917
1.227171
1.076311
0.930316
0.803788
0.709378
0.675313
0.687317
0.743119
0.858293
0.998447
1.141197
1.275187
1.38225
1.436754
1.438376
1.397498
1.294329
1.150281
0.997149
0.856995
0.741173
0.66558
0.653252
0.682126
0.76583
0.895927
1.042894
1.18824
1.312821
1.400093
1.431888
1.415666
1.349807
1.232038
1.08215
0.938752
0.815792
0.713596
0.660389
0.657145
0.692508
0.78854
0.918961
1.060738
1.19927
1.320608
1.399445
1.420533
1.39912
1.319634
1.186942
1.034135
0.886194
0.758692
0.666229
0.635084
0.649683
0.708081
0.824227
0.963408
1.104861
1.234309
1.336829
1.387765
1.389387
1.355322
1.259939
1.123353
0.97379
0.830716
0.714569
0.640923
0.626
0.65163
0.729169
0.854399
0.998771
1.139575
1.264805
1.357917
1.395876
1.384845
1.331314
1.214194
1.068524
0.921557
0.785295
0.677584
0.626324
0.625675
0.666553
0.772967
0.903713
1.049058
1.190511
1.303737
1.377708
1.391983
1.365704
1.284596
1.152876
1.00234
0.857968
0.735009
0.646439
0.617889
0.633786
0.692832
0.811574
0.955946
1.09967
1.23074
1.334883
1.39036
1.393929
1.352726
1.245015
1.10259
0.953027
0.809952
0.696077
0.631515
0.622431
0.651954
0.734684
0.862186
1.007856
1.150605
1.272916
1.363433
1.394903
1.380628
1.318986
1.198297
1.051654
0.90274
0.768101
0.662011
0.613671
0.626324
0.679206
0.780429
0.920583
1.069498
1.209328
1.321581
1.39036
1.402689
1.372517
1.288489
1.155148
1.006558
0.866403
0.74831
0.664607
0.635408
0.654225
0.713272
0.832662
0.97671
1.121731
1.254424
1.360513
1.4108
1.411773
1.371219
1.266428
1.125949
0.976386
0.835907
0.721707
0.652279
0.640923
0.672069
0.75415
0.882949
1.029268
1.17072
1.29368
1.383223
1.41372
1.400093
1.337478
1.214843
1.065604
0.918312
0.788864
0.687317
0.640599
0.644817
0.690237
0.803464
0.948809
1.099994
1.241771
1.355322
1.422155
1.431888
1.406258
1.328394
1.197324
1.044192
0.895927
0.770696
0.679531
0.651305
0.672393
0.739875
0.861537
1.007531
1.152228
1.282649
1.386467
1.435132
1.433185
1.388089
1.282649
1.141521
0.98839
0.85148
0.737604
0.669473
0.658767
0.689588
0.774589
0.904686
1.052303
1.197972
1.324176
1.411449
1.441945
1.425399
1.361811
1.238202
1.089288
0.94232
0.809628
0.708405
0.663634
0.670771
0.717814
0.821632
0.958218
1.106158
1.247611
1.362135
1.430266
1.441945
1.415017
1.330989
1.198621
1.047112
0.901766
0.779456
0.693806
0.667527
0.683424
0.747986
0.86835
1.010775
1.155796
1.286542
1.388089
1.436105
1.434159
1.391658
1.284596
1.144441
0.998123
0.861212
0.74831
0.681153
0.67142
0.703214
0.788864
0.918961
1.065929
1.209003
1.326772
1.409178
1.435781
1.412746
1.343967
1.215167
1.067227
0.934858
0.817414
0.724627
0.684397
0.69413
0.740848
0.845964
0.981252
1.126273
1.264481
1.37641
1.442918
1.4533
1.420208
1.330665
1.193755
1.041596
0.895602
0.775563
0.694455
0.670771
0.690886
0.757394
0.880678
1.025375
1.167151
1.297249
1.399445
1.447785
1.443567
1.398796
1.288813
1.147686
1.000394
0.862186
0.749608
0.684397
0.674989
0.706783
0.793406
0.921557
1.067227
1.207381
1.329692
1.418586
1.448434
1.431888
1.367001
1.242095
1.095128
0.950431
0.821956
0.721058
0.676935
0.6831
0.727222
0.833311
0.970221
1.113296
1.249882
1.362135
1.429292
1.446812
1.420533
1.333261
1.200892
1.051978
0.908255
0.786593
0.700943
0.676286
0.694779
0.75999
0.883274
1.029268
1.175911
1.304386
1.404311
1.446163
1.440647
1.393605
1.282649
1.139899
0.988714
0.854724
0.746688
0.682126
0.678882
0.726249
0.824227
0.95692
1.101292
1.240473
1.358566
1.440972
1.467575
1.448434
1.380628
1.254099
1.105834
0.958866
0.829094
0.730142
0.687966
0.69121
0.741173
0.851155
0.989687
1.135033
1.27389
1.385494
1.45038
1.461411
1.43059
1.339749
1.205759
1.056845
0.912797
0.792109
0.707432
0.685046
0.704836
0.774914
0.895927
1.043219
1.187591
1.316714
1.417288
1.459789
1.454922
1.409502
1.29952
1.155796
1.00526
0.867701
0.760963
0.701917
0.697699
0.733062
0.823254
0.955946
1.103563
1.244691
1.364406
1.449083
1.476335
1.458167
1.391009
1.266428
1.11946
0.975088
0.846613
0.74831
0.707432
0.715543
0.763234
0.873216
1.012073
1.155472
1.291409
1.400093
1.461735
1.468873
1.430914
1.34494
1.218736
1.069822
0.930316
0.813521
0.744093
0.726573
0.747013
0.813521
0.933561
1.075986
1.216465
1.34494
1.444865
1.487041
1.483148
1.438701
1.331314
1.196999
1.051005
0.910202
0.801841
0.738577
0.731115
0.764207
0.854075
0.984821
1.134708
1.279729
1.398796
1.479579
1.501641
1.481201
1.412097
1.286542
1.139899
0.996825
0.868026
0.77102
0.732413
0.741822
0.790486
0.900793
1.041272
1.184995
1.321905
1.435132
1.498396
1.506831
1.473739
1.380303
1.244042
1.094154
0.951729
0.834285
0.753177
0.732413
0.756097
0.827472
0.95108
1.095128
1.238851
1.369921
1.466602
1.509751
1.502614
1.452003
1.3391
1.195377
1.047436
0.909228
0.79957
0.739551
0.740199
0.77102
0.863483
0.994554
1.141197
1.282974
1.401067
1.481526
1.505534
1.478282
1.413395
1.286867
1.136979
0.99131
0.861537
0.765181
0.731764
0.743119
0.793731
0.904686
1.044841
1.191159
1.327421
1.434808
1.491908
1.497747
1.461411
1.365704
1.229767
1.08507
0.944916
0.825201
0.749932
0.73144
0.753177
0.822281
0.943943
1.087341
1.230416
1.358242
1.455571
1.495476
1.488014
1.436105
1.319959
1.176884
1.030241
0.896575
0.789513
0.731115
0.726573
0.761612
0.856995
0.990985
1.137953
1.279729
1.3962
1.480228
1.502289
1.479579
1.406258
1.276809
1.12822
0.984496
0.853751
0.758368
0.71976
0.729169
0.783673
0.898522
1.038028
1.185969
1.324176
1.43351
1.492232
1.49645
1.457842
1.359539
1.221656
1.07112
0.929343
0.81125
0.735333
0.719436
0.745066
0.818712
0.942969
1.088963
1.235931
1.364082
1.458491
1.494828
1.484121
1.429941
1.312821
1.166827
1.01986
0.885869
0.781727
0.72852
0.726898
0.763234
0.857968
0.989363
1.134059
1.274214
1.389712
1.466602
1.487041
1.464007
1.395551
1.269672
1.11946
0.972817
0.843693
0.747986
0.712298
0.723653
0.781727
0.894629
1.034783
1.17656
1.307955
1.414693
1.471468
1.475686
1.438701
1.342669
1.209328
1.062684
0.920583
0.801193
0.724951
0.713596
0.740848
0.815143
0.939076
1.083773
1.226847
1.351753
1.445838
1.481526
1.469197
1.414368
1.296275
1.15093
1.00234
0.867701
0.766803
0.715543
0.714894
0.753501
0.848884
0.980928
1.125949
1.266103
1.383872
1.461411
1.482175
1.458167
1.38225
1.252153
1.101616
0.956271
0.829418
0.735009
0.699646
0.711974
0.76583
0.881327
1.024402
1.171369
1.308279
1.416639
1.472766
1.476335
1.437728
1.337803
1.199919
1.052627
0.907931
0.79146
0.715218
0.698672
0.723653
0.798273
0.924152
1.070146
1.211923
1.334558
1.428968
1.46498
1.4533
1.398796
1.281676
1.137953
0.993256
0.858293
0.749932
0.694455
0.693806
0.736955
0.83688
0.972492
1.119136
1.258966
1.37641
1.451029
1.467251
1.441621
1.361811
1.231065
1.086368
0.943618
0.816441
0.720409
0.685046
0.695752
0.751555
0.868674
1.014669
1.160014
1.292707
1.398471
1.458167
1.469522
1.434808
1.337803
1.200244
1.050681
0.90566
0.786593
0.709378
0.691859
0.717814
0.795028
0.92253
1.071444
1.216141
1.340074
1.435781
1.47601
1.462384
1.403987
1.281676
1.134059
0.985145
0.849533
0.743119
0.691859
0.697374
0.745066
0.849208
0.984496
1.12822
1.267076
1.383872
1.456545
1.477308
1.452976
1.375112
1.244366
1.093181
0.946862
0.82001
0.727222
0.695428
0.709054
0.765505
0.882949
1.02505
1.169747
1.303413
1.410475
1.465304
1.468224
1.428319
1.32515
1.186942
1.039974
0.900469
0.786269
0.717165
0.70289
0.73144
0.809303
0.935832
1.08215
1.224576
1.349807
1.441296
1.476335
1.464331
1.406907
1.288489
1.141197
0.994554
0.859915
0.753501
0.70289
0.704836
0.745715
0.847586
0.983848
1.129193
1.269672
1.38517
1.458816
1.476659
1.45038
1.369597
1.239175
1.089937
0.942645
0.817739
0.727222
0.695428
0.710027
0.772318
0.896251
1.035108
1.175587
1.305035
1.408853
1.459464
1.460762
1.428968
1.335856
1.200244
1.051654
0.909553
0.792433
0.71976
0.706134
0.735009
0.81709
0.945889
1.090261
1.231389
1.354997
1.446487
1.478282
1.465629
1.408204
1.288813
1.140873
0.993581
0.858617
0.751879
0.700294
0.700943
0.743119
0.846289
0.98255
1.129193
1.271943
1.391983
1.466278
1.482175
1.4533
1.371868
1.240149
1.092532
0.945889
0.822605
0.732738
0.701268
0.71684
0.774589
0.891709
1.033161
1.178182
1.311199
1.415342
1.465629
1.465953
1.427995
1.324825
1.184671
1.039001
0.899171
0.782376
0.714245
0.699321
0.7256
0.806384
0.936805
1.086044
1.228794
1.351104
1.440972
1.480877
1.47082
1.416315
1.300817
1.152228
1.002016
0.866079
0.758043
0.70581
0.70581
0.74539
0.846613
0.985794
1.134059
1.272592
1.387116
1.45914
1.473739
1.446487
1.363757
1.231065
1.079231
0.93421
0.808979
0.719111
0.690886
0.710676
0.772318
0.890087
1.034135
1.178831
1.310226
1.414693
1.46498
1.463033
1.420208
1.316066
1.174289
1.025699
0.884247
0.771345
0.702565
0.691859
0.722031
0.805086
0.935183
1.080204
1.221332
1.343642
1.432212
1.468549
1.45622
1.392632
1.274214
1.129193
0.983199
0.850506
0.747337
0.699646
0.703214
0.74831
0.854399
0.993581
1.139899
1.278432
1.391983
1.461735
1.475362
1.446163
1.362784
1.229767
1.079231
0.934858
0.811899
0.726249
0.700619
0.718787
0.780105
0.898847
1.043543
1.186942
1.318661
1.42183
1.470495
1.468873
1.42475
1.317363
1.176236
1.027646
0.886518
0.777185
0.713596
0.70289
0.733711
0.81709
0.945889
1.092532
1.235607
1.360188
1.449083
1.477308
1.458491
1.388738
1.265454
1.114594
0.970221
0.850506
0.753501
0.707432
0.710352
0.75415
0.85959
0.997149
1.147037
1.291084
1.408529
1.475362
1.486392
1.458816
1.370895
1.23658
1.084421
0.939076
0.815468
0.728195
0.701592
0.71976
0.7827
0.904037
1.049058
1.19343
1.32515
1.42767
1.475037
1.471468
1.426697
1.319959
1.177858
1.028619
0.888789
0.774914
0.709054
0.702565
0.737928
0.825201
0.95692
1.103887
1.246962
1.369272
1.457193
1.485743
1.468224
1.403662
1.277458
1.127246
0.980928
0.84856
0.744093
0.699646
0.710027
0.75999
0.869323
1.004287
1.148983
1.288813
1.402364
1.4679
1.477633
1.449407
1.36473
1.231389
1.079231
0.933885
0.816765
0.732089
0.707432
0.730467
0.801841
0.927072
1.077608
1.217763
1.346238
1.445838
1.490934
1.486717
1.439999
1.330341
1.187591
1.037703
0.898522
0.787242
0.723005
0.713596
0.746039
0.832987
0.963408
1.110052
1.252477
1.378357
1.467575
1.496125
1.476984
1.411124
1.285569
1.135357
0.988714
0.857968
0.757394
0.715218
0.722031
0.769074
0.878083
1.017588
1.163907
1.300817
1.412746
1.477957
1.488014
1.455571
1.365704
1.232038
1.082475
0.936805
0.816441
0.730791
0.704512
0.727222
0.794055
0.917664
1.063658
1.208354
1.338451
1.43935
1.482175
1.476984
1.430266
1.323528
1.181426
1.032512
0.895927
0.784322
0.717814
0.713596
0.747013
0.835907
0.967626
1.11362
1.254424
1.373814
1.456545
1.483797
1.467251
1.400093
1.272916
1.122704
0.97671
0.84564
0.745066
0.701268
0.708405
0.756421
0.866079
1.005585
1.154823
1.295626
1.408204
1.473739
1.482175
1.448758
1.357593
1.220034
1.069173
0.924152
0.804761
0.721382
0.698997
0.721707
0.790486
0.914095
1.060089
1.202515
1.329692
1.427346
1.4679
1.461411
1.409502
1.301791
1.163907
1.01402
0.876785
0.765181
0.704188
0.701917
0.740199
0.83396
0.966328
1.114269
1.257992
1.378032
1.460438
1.483472
1.463682
1.393605
1.271294
1.118487
0.971844
0.841747
0.743444
0.700619
0.709378
0.758368
0.867377
1.006882
1.152228
1.290436
1.405933
1.473415
1.482824
1.448434
1.353051
1.214194
1.063009
0.918961
0.80249
0.723005
0.701268
0.725276
0.794704
0.919935
1.066578
1.209003
1.33618
1.432212
1.473739
1.470495
1.422804
1.31055
1.171045
1.027646
0.890087
0.775887
0.711649
0.704512
0.737928
0.829418
0.963084
1.115891
1.258966
1.379005
1.463033
1.482499
1.455571
1.387765
1.269672
1.124975
0.978332
0.846289
0.747337
0.709703
0.718463
0.772318
0.88522
1.027321
1.172018
1.307955
1.416639
1.476659
1.481526
1.445189
1.349807
1.212247
1.060738
0.91669
0.797299
0.718138
0.699321
0.723653
0.796651
0.92253
1.069173
1.213221
1.341371
1.438701
1.47893
1.470495
1.419884
1.304062
1.158716
1.009802
0.871919
0.76291
0.704512
0.700943
0.737604
0.833311
0.967626
1.115567
1.257992
1.376734
1.458491
1.48185
1.461411
1.389063
1.259939
1.108754
0.95984
0.829743
0.732089
0.692508
0.705161
0.76583
0.881652
1.026673
1.173316
1.311848
1.419884
1.478282
1.481526
1.443243
1.345589
1.206408
1.054574
0.912473
0.798922
0.723978
0.708081
0.735657
0.80833
0.934534
1.082475
1.226522
1.352078
1.446487
1.484121
1.476984
1.429941
1.317688
1.174289
1.02797
0.891385
0.7827
0.723653
0.719436
0.756097
0.851804
0.984496
1.13114
1.272267
1.39036
1.472117
1.49645
1.474388
1.400742
1.272267
1.121082
0.974439
0.846613
0.750257
