1.108105
1.150281
1.155796
1.123353
1.037054
0.92545
0.809303
0.696726
0.603289
0.550083
0.535808
0.553976
0.62308
0.723653
0.837205
0.953351
1.054574
1.125624
1.155472
1.151254
1.101292
1.005585
0.889762
0.773291
0.669149
0.587392
0.550083
0.546838
0.57993
0.66558
0.773616
0.888789
1.001042
1.094154
1.149308
1.165854
1.149632
1.078582
0.974439
0.85667
0.741822
0.642221
0.575388
0.551056
0.559491
0.611725
0.706134
0.819685
0.935507
1.042245
1.125624
1.166503
1.171045
1.137953
1.051005
0.939076
0.821307
0.710352
0.618862
0.567602
0.554625
0.57409
0.64579
0.746688
0.859266
0.975412
1.075662
1.144117
1.171369
1.16488
1.1107
1.012398
0.895278
0.777834
0.673367
0.593232
0.556571
0.554625
0.590312
0.675638
0.784647
0.898522
1.008504
1.100319
1.153201
1.167476
1.149308
1.075337
0.969573
0.851804
0.735982
0.637355
0.570522
0.546189
0.554625
0.608805
0.702241
0.813845
0.929343
1.034135
1.114594
1.153525
1.156445
1.120433
1.03089
0.917988
0.800544
0.689264
0.598098
0.547487
0.535808
0.556247
0.630542
0.732413
0.845964
0.95984
1.058467
1.123029
1.148334
1.140224
1.083773
0.98547
0.869648
0.751879
0.646763
0.566629
0.530617
0.529643
0.566629
0.652603
0.761936
0.875812
0.986443
1.078906
1.130815
1.145415
1.125949
1.050681
0.944916
0.826823
0.711649
0.612698
0.549109
0.52575
0.534834
0.589988
0.686344
0.798922
0.915717
1.01986
1.099345
1.13633
1.138926
1.101616
1.011424
0.897873
0.780105
0.670122
0.580255
0.530941
0.520235
0.541647
0.616267
0.718463
0.832014
0.945889
1.043867
1.109403
1.134059
1.125624
1.0682
0.967626
0.850506
0.732089
0.626648
0.54846
0.514071
0.515044
0.554949
0.643843
0.755772
0.871919
0.984172
1.076311
1.127571
1.141197
1.120433
1.044841
0.937129
0.819361
0.704188
0.606534
0.544243
0.523479
0.535159
0.594205
0.690561
0.804112
0.920259
1.026024
1.104536
1.140873
1.142495
1.103887
1.01402
0.900793
0.7827
0.672718
0.583823
0.537105
0.527697
0.55138
0.627622
0.732089
0.847586
0.962435
1.061387
1.125949
1.149957
1.141197
1.080528
0.979954
0.863483
0.746364
0.643194
0.567602
0.535159
0.536456
0.577984
0.666878
0.778158
0.893656
1.002989
1.091883
1.140873
1.152228
1.128544
1.050681
0.941023
0.825525
0.711325
0.615618
0.555273
0.536456
0.549434
0.611725
0.710027
0.823578
0.941023
1.044516
1.121082
1.154499
1.154499
1.112323
1.020508
0.905984
0.788864
0.680828
0.593556
0.549109
0.541972
0.568575
0.647736
0.753177
0.867377
0.98255
1.080204
1.142819
1.165529
1.153525
1.090261
0.989687
0.872892
0.755772
0.653901
0.57993
0.549434
0.552354
0.59453
0.684722
0.795028
0.911175
1.020508
1.109403
1.157094
1.168125
1.143144
1.061711
0.953675
0.835907
0.721058
0.624377
0.565331
0.547812
0.561113
0.624053
0.721382
0.834933
0.950756
1.053925
1.129842
1.162285
1.160987
1.116865
1.023428
0.907931
0.789837
0.682451
0.595827
0.55138
0.544892
0.572144
0.652603
0.758692
0.872892
0.986767
1.083448
1.144117
1.165205
1.152876
1.088315
0.986767
0.868999
0.751879
0.649683
0.576037
0.546514
0.550731
0.596152
0.687642
0.79957
0.915393
1.023753
1.1107
1.157094
1.16488
1.137304
1.055871
0.946862
0.829418
0.717165
0.622755
0.56598
0.549109
0.565006
0.630542
0.73144
0.846289
0.96276
1.064956
1.138277
1.170396
1.168449
1.123029
1.028619
0.913122
0.795028
0.686668
0.600369
0.558518
0.553976
0.582526
0.664931
0.772643
0.887491
1.000718
1.097399
1.155796
1.174938
1.160987
1.094154
0.992283
0.876136
0.759341
0.658767
0.586419
0.558193
0.564033
0.611076
0.702565
0.816765
0.932912
1.040948
1.127246
1.170396
1.178507
1.148983
1.064956
0.954
0.837205
0.723653
0.629244
0.573442
0.558193
0.57409
0.640923
0.740524
0.855048
0.970221
1.073391
1.14509
1.17656
1.172018
1.124002
1.028619
0.912148
0.795353
0.688615
0.604263
0.564033
0.561113
0.591934
0.675638
0.783024
0.897549
1.010451
1.105834
1.162934
1.181426
1.166178
1.09675
0.992607
0.874839
0.758368
0.658118
0.588365
0.563384
0.569548
0.619186
0.712298
0.824552
0.941347
1.049707
1.134059
1.176884
1.183373
1.152552
1.067875
0.956595
0.839151
0.725924
0.631839
0.577659
0.562735
0.579606
0.649034
0.750257
0.864781
0.981252
1.082475
1.154174
1.184022
1.179804
1.129517
1.033161
0.917339
0.797624
0.690561
0.607507
0.567926
0.563709
0.594854
0.678233
0.786269
0.902091
1.013046
1.107132
1.162609
1.180453
1.164232
1.09383
0.989687
0.872892
0.755448
0.654874
0.586743
0.561113
0.568575
0.619511
0.712623
0.823578
0.939076
1.045814
1.129193
1.171045
1.175262
1.142819
1.055223
0.943943
0.827147
0.714245
0.621782
0.569873
0.556896
0.575713
0.646439
0.747661
0.861537
0.97671
1.077608
1.145739
1.17364
1.168449
1.115891
1.018237
0.901442
0.784322
0.679206
0.597125
0.56014
0.557869
0.59161
0.67726
0.786593
0.902415
1.014993
1.108429
1.161961
1.178507
1.160663
1.087341
0.981252
0.863159
0.747013
0.647088
0.579606
0.555598
0.564033
0.618538
0.713596
0.827147
0.943943
1.050356
1.132113
1.172667
1.177209
1.142819
1.055547
0.943943
0.826174
0.716192
0.623404
0.573117
0.562411
0.582526
0.65455
0.757719
0.872243
0.989363
1.089937
1.158392
1.185644
1.178182
1.124002
1.025699
0.907931
0.789837
0.685371
0.604911
0.5689
0.567602
0.603938
0.690561
0.800544
0.915717
1.028619
1.122055
1.174938
1.191484
1.172667
1.098696
0.994229
0.876136
0.760963
0.66266
0.598747
0.575064
0.585446
0.641572
0.737928
0.850506
0.967302
1.072417
1.153201
1.191808
1.195053
1.160014
1.069498
0.955946
0.838178
0.72852
0.638004
0.589339
0.579606
0.601018
0.676286
0.778807
0.894304
1.009153
1.108754
1.175587
1.200892
1.194404
1.137953
1.038677
0.921881
0.804761
0.700943
0.622755
0.58869
0.589014
0.626648
0.713921
0.823578
0.938752
1.049707
1.140873
1.193106
1.207057
1.186942
1.111025
1.003962
0.886843
0.773291
0.675313
0.612049
0.589339
0.600369
0.658767
0.755123
0.868999
0.984821
1.089612
1.169423
1.207057
1.209003
1.171045
1.079555
0.965679
0.848884
0.738902
0.650007
0.603289
0.593881
0.61724
0.692508
0.796326
0.908904
1.024077
1.122055
1.185644
1.210301
1.200892
1.142819
1.043867
0.926748
0.809628
0.70581
0.628919
0.596476
0.597125
0.63703
0.725276
0.836231
0.951404
1.061062
1.150605
1.199919
1.213221
1.190511
1.111349
1.003314
0.88522
0.770047
0.673042
0.611725
0.59161
0.603614
0.663309
0.759665
0.872892
0.989363
1.092532
1.17072
1.206732
1.207705
1.167476
1.075337
0.959515
0.841422
0.732089
0.644168
0.598098
0.589014
0.613671
0.690886
0.795677
0.911499
1.026024
1.124975
1.187591
1.21095
1.199919
1.138602
1.037703
0.921232
0.803464
0.700294
0.62308
0.590637
0.592259
0.63411
0.723005
0.835258
0.950431
1.060413
1.149957
1.198946
1.209976
1.185644
1.105834
0.997798
0.880354
0.766154
0.670122
0.609454
0.589339
0.60264
0.664282
0.761612
0.874514
0.991634
1.095128
1.172018
1.205434
1.203488
1.160338
1.0682
0.953351
0.835582
0.726898
0.638977
0.59453
0.588041
0.61432
0.693157
0.798922
0.914419
1.028619
1.125949
1.187266
1.208354
1.196675
1.133411
1.031215
0.914744
0.796326
0.695752
0.620809
0.591285
0.59453
0.638328
0.730142
0.841422
0.957244
1.065604
1.15385
1.200568
1.209976
1.184346
1.101616
0.992283
0.875487
0.762585
0.666878
0.609129
0.591285
0.60556
0.669798
0.769398
0.882949
0.997798
1.100643
1.17656
1.209652
1.207705
1.161636
1.067875
0.952702
0.83396
0.726573
0.641572
0.599721
0.594854
0.62308
0.703214
0.809303
0.923828
1.037054
1.132762
1.193106
1.21387
1.201217
1.135033
1.033161
0.91669
0.799895
0.698348
0.626324
0.598098
0.603614
0.649683
0.740524
0.852777
0.968924
1.076635
1.163258
1.209003
1.217114
1.188564
1.106158
0.994878
0.877758
0.764856
0.671096
0.614644
0.598747
0.614644
0.681477
0.780753
0.895278
1.012398
1.114269
1.187915
1.219385
1.217114
1.169423
1.075337
0.959191
0.841422
0.734684
0.650332
0.60848
0.604587
0.634435
0.71684
0.823903
0.938752
1.052303
1.148334
1.205759
1.224251
1.209976
1.141521
1.037054
0.919935
0.80249
0.701917
0.63119
0.603938
0.609129
0.658443
0.751555
0.863483
0.980279
1.088315
1.173965
1.217438
1.223927
1.194728
1.109403
0.997798
0.878732
0.765505
0.672393
0.619511
0.604263
0.621133
0.689588
0.789837
0.904362
1.022131
1.123029
1.193755
1.223278
1.219709
1.170071
1.074688
0.958218
0.839151
0.732413
0.649359
0.609454
0.604911
0.635732
0.718463
0.825201
0.940698
1.052627
1.14801
1.205434
1.222629
1.207381
1.136655
1.032188
0.914095
0.796651
0.695428
0.626324
0.600369
0.607507
0.658443
0.751555
0.864132
0.97963
1.086044
1.169098
1.21095
1.21679
1.185969
1.099345
0.987416
0.869648
0.758043
0.664607
0.611725
0.597125
0.615942
0.685695
0.786269
0.900793
1.016615
1.11654
1.186617
1.214519
1.209652
1.157419
1.060413
0.943943
0.825525
0.719436
0.638004
0.600369
0.597774
0.631839
0.715543
0.82293
0.937778
1.049058
1.144441
1.199595
1.216465
1.19927
1.126273
1.020508
0.902415
0.786269
0.686993
0.621133
0.597774
0.606858
0.65974
0.75415
0.867052
0.983523
1.088963
1.171694
1.211274
1.215816
1.183049
1.096101
0.982874
0.867052
0.755123
0.66266
0.611725
0.599396
0.620484
0.692508
0.79438
0.907931
1.023104
1.123353
1.191159
1.219709
1.213545
1.15969
1.062036
0.945565
0.826498
0.721707
0.641248
0.60556
0.603614
0.638652
0.725924
0.834933
0.950107
1.061062
1.15385
1.206408
1.221007
1.201541
1.127895
1.021806
0.905011
0.78854
0.690561
0.625026
0.601667
0.6114
0.666878
0.761612
0.873541
0.989363
1.094803
1.17656
1.216465
1.220358
1.184995
1.096101
0.983523
0.86543
0.754474
0.664282
0.614969
0.604263
0.625675
0.700294
0.803788
0.917988
1.032188
1.132113
1.198621
1.224576
1.21679
1.162285
1.063982
0.947511
0.829418
0.7256
0.64579
0.610751
0.609778
0.647412
0.733711
0.844018
0.960813
1.070471
1.162285
1.21387
1.227496
1.207381
1.130166
1.023753
0.907282
0.79146
0.692508
0.628595
0.606209
0.617564
0.675313
0.77102
0.884247
0.999745
1.104536
1.183698
1.220358
1.224251
1.185969
1.095128
0.981577
0.865106
0.755123
0.666553
0.618213
0.607831
0.629568
0.704512
0.808006
0.922854
1.038028
1.136006
1.201541
1.226847
1.219061
1.160338
1.059765
0.942969
0.824876
0.721707
0.644168
0.6114
0.611725
0.650981
0.738577
0.84856
0.963733
1.074364
1.164232
1.215492
1.22782
1.20511
1.127571
1.020833
0.90274
0.78854
0.690237
0.626973
0.604911
0.615942
0.674664
0.770372
0.882949
0.99942
1.101941
1.179804
1.215816
1.217438
1.177858
1.086692
0.971519
0.853751
0.744093
0.655198
0.608805
0.600045
0.623729
0.700294
0.803464
0.917339
1.03089
1.127895
1.191808
1.215492
1.204786
1.143792
1.043219
0.927072
0.809628
0.706783
0.631515
0.598423
0.598423
0.639301
0.726898
0.838178
0.953675
1.061711
1.151254
1.19927
1.21095
1.187266
1.108105
1.000718
0.882301
0.767776
0.671744
0.6114
0.590637
0.602965
0.66558
0.762261
0.875812
0.991634
1.094479
1.170396
1.205434
1.206408
1.164556
1.073066
0.959515
0.842071
0.733711
0.647088
0.601992
0.594854
0.62016
0.697374
0.80249
0.915717
1.030566
1.127895
1.189213
1.210301
1.198946
1.136006
1.035432
0.91961
0.802815
0.701268
0.626973
0.595827
0.599072
0.64287
0.733062
0.844018
0.959191
1.067875
1.155796
1.202839
1.213545
1.18824
1.105834
0.997149
0.879056
0.765181
0.670122
0.6114
0.593232
0.607183
0.669798
0.767452
0.880678
0.996825
1.099994
1.17656
1.209003
1.208679
1.165205
1.071769
0.957244
0.840449
0.733386
0.646439
0.602965
0.596152
0.622755
0.701917
0.807032
0.920259
1.033161
1.129842
1.189213
1.210625
1.197324
1.133086
1.031863
0.914744
0.797624
0.696077
0.62308
0.593556
0.596476
0.641572
0.730467
0.841747
0.956595
1.063658
1.150605
1.19635
1.206083
1.178831
1.096101
0.986119
0.869648
0.755123
0.660714
0.603938
0.586743
0.601992
0.666878
0.764532
0.877758
0.992607
1.09383
1.166178
1.197324
1.194404
1.148659
1.0536
0.938103
0.819361
0.712623
0.626973
0.58577
0.580255
0.607507
0.687642
0.792433
0.90566
1.01694
1.111998
1.169098
1.188564
1.173316
1.106158
1.003962
0.886194
0.77102
0.670447
0.599072
0.572144
0.576362
0.623729
0.715218
0.826174
0.940049
1.04549
1.130491
1.174613
1.1824
1.154499
1.071769
0.962111
0.84564
0.733062
0.639301
0.583175
0.566953
0.582201
0.648385
0.746364
0.857968
0.972168
1.07112
1.143144
1.17364
1.169098
1.120433
1.026997
0.912148
0.795677
0.690561
0.606534
0.566629
0.561113
0.591934
0.672393
0.776536
0.888465
0.998771
1.091559
1.147361
1.165205
1.148983
1.081177
0.979954
0.864781
0.750906
0.650981
0.582201
0.554949
0.560464
0.60848
0.699321
0.809303
0.921557
1.025699
1.109078
1.15093
1.157094
1.126598
1.042894
0.934534
0.819361
0.710027
0.618213
0.565331
0.550407
0.566304
0.633461
0.730791
0.841747
0.953675
1.051005
1.117838
1.145415
1.140548
1.091559
0.998771
0.886843
0.773616
0.671744
0.593556
0.55722
0.555273
0.586419
0.668176
0.772967
0.883923
0.992283
1.083124
1.137304
1.153525
1.138602
1.069173
0.967626
0.854399
0.74247
0.648061
0.58285
0.559167
0.568251
0.618213
0.709054
0.818063
0.929343
1.032188
1.111349
1.150281
1.155148
1.123353
1.039974
0.932263
0.819361
0.712947
0.624377
0.575064
0.563384
0.581228
0.650007
0.749284
0.85959
0.970221
1.066578
1.132762
1.159365
1.154499
1.102914
1.009153
0.897549
0.784322
0.682775
0.60556
0.570197
0.567926
0.599072
0.680828
0.785295
0.894304
1.000394
1.089288
1.139899
1.154174
1.136006
1.06528
0.963733
0.851804
0.741497
0.647088
0.583823
0.561113
0.570197
0.620809
0.711649
0.819685
0.930316
1.031863
1.110052
1.147037
1.151903
1.119136
1.033161
0.925125
0.812223
0.706134
0.618862
0.571495
0.56014
0.579281
0.648385
0.746039
0.854075
0.963408
1.057494
1.121082
1.147037
1.141197
1.08799
0.992607
0.881652
0.768749
0.667527
0.591285
0.555922
0.553976
0.588365
0.671096
0.775563
0.885869
0.992283
1.080204
1.130815
1.144441
1.126598
1.054249
0.951729
0.8398
0.72852
0.633786
0.571495
0.549109
0.556571
0.609778
0.700294
0.807681
0.918312
1.018886
1.095777
1.134059
1.138602
1.104861
1.020508
0.912797
0.799895
0.694455
0.607831
0.559816
0.548136
0.566629
0.636706
0.735982
0.844018
0.953027
1.047761
1.109403
1.134384
1.127571
1.072742
0.978008
0.866728
0.753826
0.65455
0.580255
0.546514
0.544892
0.579606
0.662985
0.767452
0.876136
0.980603
1.067875
1.115242
1.128869
1.108105
1.034459
0.932263
0.819685
0.709703
0.615293
0.553976
0.532239
0.540998
0.595503
0.686344
0.792109
0.90274
1.001367
1.076311
1.111025
1.11362
1.077933
0.992283
0.884572
0.772318
0.669149
0.584472
0.540674
0.530617
0.551705
0.623729
0.722356
0.830716
0.938752
1.034459
1.095777
1.11946
1.112323
1.05652
0.962111
0.85148
0.739875
0.641897
0.568251
0.537105
0.537754
0.576037
0.660389
0.765181
0.875487
0.981252
1.067551
1.114918
1.126922
1.106483
1.032837
0.930316
0.818712
0.708405
0.615618
0.557544
0.538079
0.549434
0.607183
0.700294
0.808006
0.91961
1.018886
1.093181
1.127895
1.130491
1.092532
1.005585
0.898522
0.786918
0.683424
0.600045
0.556247
0.547487
0.569873
0.644168
0.743119
0.852128
0.960164
1.052627
1.113296
1.135357
1.126598
1.068524
0.97379
0.863808
0.75123
0.653252
0.582526
0.553002
0.5543
0.59453
0.678557
0.785295
0.896251
1.001042
1.086044
1.131788
1.143468
1.121731
1.046138
0.943294
0.832987
0.724627
0.632488
0.574739
0.556571
0.567602
0.626648
0.720085
0.827472
0.938103
1.03673
1.110376
1.143468
1.144766
1.103238
1.015317
0.90566
0.794055
0.691535
0.60848
0.566953
0.559167
0.584797
0.660389
0.761936
0.87127
0.97963
1.072417
1.130815
1.152552
1.142495
1.081826
0.985145
0.873541
0.761936
0.664931
0.593881
0.565331
0.567602
0.609454
0.69413
0.801193
0.911499
1.01402
1.097399
1.14217
1.153201
1.129193
1.051329
0.94816
0.836556
0.728844
0.638004
0.583823
0.56598
0.578308
0.639626
0.73436
0.842395
0.951729
1.051005
1.122055
1.154174
1.153525
1.110052
1.01986
0.909553
0.798922
0.696726
0.614969
0.574415
0.567926
0.593556
0.670447
0.772643
0.881976
0.989687
1.080528
1.136006
1.155796
1.144117
1.080528
0.982225
0.870297
0.758043
0.661687
0.592908
0.564682
0.568251
0.611725
0.698023
0.804761
0.915068
1.017588
1.101616
1.145739
1.155472
1.129517
1.050681
0.945889
0.83396
0.7256
0.635408
0.581877
0.565006
0.578308
0.641572
0.736631
0.844342
0.954
1.051329
1.119784
1.150281
1.148659
1.104212
1.013695
0.903389
0.791784
0.690886
0.609454
0.570522
0.566304
0.594205
0.672393
0.774265
0.883598
0.990985
1.08215
1.138602
1.157743
1.143792
1.078906
0.980603
0.869323
0.757719
0.661038
0.595179
0.5689
0.573766
0.62016
0.70873
0.815792
0.927072
1.030566
1.112647
1.155148
1.162609
1.135357
1.054898
0.949133
0.836231
0.728844
0.639626
0.588041
0.573766
0.589014
0.653576
0.749608
0.858617
0.969897
1.067227
1.13633
1.166503
1.164232
1.118487
1.027646
0.917339
0.806059
0.705485
0.626
0.588041
0.584797
0.61432
0.693806
0.797624
0.908255
1.015642
1.106807
1.161636
1.179804
1.165854
1.099345
0.99942
0.88814
0.77686
0.682451
0.61724
0.59161
0.59745
0.646114
0.735657
0.843044
0.954973
1.05652
1.138277
1.178507
1.186293
1.15677
1.074688
0.968599
0.85667
0.747986
0.660065
0.610102
0.596476
0.613671
0.681153
0.778807
0.888465
0.999745
1.097399
1.165205
1.194079
1.191808
1.141846
1.050032
0.939725
0.827147
0.726573
0.648061
0.613022
0.609778
0.641248
0.722031
0.825201
0.935832
1.043219
1.134059
1.187591
1.20511
1.189537
1.120109
1.019535
0.907931
0.796651
0.701268
0.638004
0.614644
0.622106
0.672718
0.762261
0.869972
0.981577
1.082799
1.162609
1.20219
1.209003
1.178182
1.095128
0.98839
0.876136
0.770047
0.682451
0.633461
0.621133
0.640275
0.710027
0.807032
0.91669
1.028295
1.124975
1.192133
1.218736
1.21387
1.162285
1.069498
0.958542
0.845964
0.745715
0.669149
0.63411
0.631515
0.664607
0.746039
0.848884
0.958542
1.064956
1.155148
1.207705
1.223278
1.206732
1.136006
1.034783
0.923503
0.811899
0.717814
0.655847
0.632488
0.640599
0.692508
0.781402
0.888789
1.000394
1.101616
1.180453
1.217763
1.223278
1.188888
1.104536
0.997149
0.885869
0.780105
0.692832
0.643843
0.63119
0.64871
0.717489
0.814819
0.924152
1.033161
1.129193
1.193755
1.219061
1.212247
1.158392
1.064956
0.953675
0.840773
0.741173
0.665256
0.630866
0.628271
0.662985
0.745066
0.849857
0.960164
1.066578
1.155148
1.206083
1.221332
1.202839
1.130166
1.028944
0.91669
0.80541
0.711001
0.650332
0.628595
0.638004
0.692832
0.783349
0.891709
1.00526
1.105509
1.182724
1.219385
1.223278
1.18824
1.10259
0.993905
0.882301
0.777185
0.691859
0.646114
0.635408
0.656496
0.727222
0.825849
0.935832
1.046463
1.141846
1.204786
1.231389
1.225225
1.170396
1.075337
0.963733
0.850506
0.75123
0.676286
0.643843
0.643194
0.679855
0.763883
0.868674
0.978332
1.083773
1.171694
1.219709
1.23366
1.213545
1.13925
1.03673
0.924477
0.813845
0.720409
0.65974
0.638004
0.648061
0.703539
0.796651
0.905335
1.017588
1.116865
1.192133
1.22782
1.231065
1.194404
1.107456
0.996825
0.885545
0.779456
0.693157
0.647736
0.638004
0.659092
0.732089
0.832662
0.942645
1.052952
1.147686
1.208354
1.231713
1.222954
1.16488
1.0682
0.956271
0.84272
0.743768
0.670771
0.638004
0.638652
0.676935
0.761612
0.866728
0.975412
1.079555
1.16488
1.209976
1.221656
1.199595
1.123029
1.017588
0.904362
0.793731
0.701268
0.642546
0.62308
0.63411
0.691535
0.78562
0.894629
1.005909
1.104212
1.177533
1.211274
1.211599
1.171045
1.081177
0.97087
0.858293
0.752528
0.668176
0.626324
0.617564
0.63995
0.714569
0.814494
0.923503
1.032837
1.125624
1.184022
1.206408
1.195701
1.134708
1.037379
0.925125
0.811899
0.713596
0.641897
0.611725
0.613996
0.654874
0.739875
0.84564
0.954973
1.057169
1.141521
1.187915
1.198946
1.175911
1.097723
0.994229
0.881652
0.771669
0.678233
0.620809
0.601343
0.6114
0.669149
0.759665
0.865754
0.975088
1.073391
1.144766
1.176236
1.175262
1.131788
1.041596
0.930316
0.816116
0.711649
0.626648
0.581877
0.571819
0.592908
0.666229
0.764532
0.871594
0.977359
1.0682
1.124327
1.142819
1.129193
1.063009
0.963084
0.847262
0.731115
0.630542
0.55722
0.524777
0.523804
0.562087
0.643843
0.745066
0.849208
0.947187
1.024726
1.063333
1.066253
1.034783
0.946538
0.83396
0.712947
0.59453
0.49428
0.430692
0.404413
0.409604
0.463459
0.550731
0.651954
0.756745
0.847262
0.911175
0.936805
0.930316
0.880678
0.786918
0.672069
0.554949
0.447562
0.36321
0.322007
0.31487
0.340824
0.41739
0.519586
0.630866
0.741173
0.834933
0.893007
0.913446
0.90274
0.838502
0.740524
0.629244
0.517639
0.422581
0.355424
0.330767
0.336931
0.384298
0.47449
0.584148
0.696726
0.801193
0.886194
0.931939
0.941996
0.917015
0.8398
0.735333
0.624702
0.518937
0.431016
0.38008
0.36613
0.383
0.448535
0.544892
0.655198
0.766478
0.86543
0.935507
0.966977
0.965031
0.920583
0.829094
0.718463
0.605236
0.504013
0.424203
0.386245
0.382027
0.411875
0.492334
0.596152
0.706783
0.815143
0.906957
0.962435
0.980603
0.966328
0.898847
0.799246
0.686344
0.573766
0.477734
0.411226
0.386893
0.395004
0.44302
0.534834
0.644817
0.757394
0.861861
0.946214
0.989687
0.999096
0.972492
0.893007
0.789513
0.68018
0.576686
0.492658
0.444642
0.435234
0.455673
0.526723
0.628271
0.743444
0.859266
0.960489
1.032512
1.065604
1.066253
1.022131
0.933561
0.826498
0.71684
0.621133
0.547812
0.517639
0.518613
0.555598
0.642221
0.751879
0.868674
0.98255
1.079231
1.13925
1.162285
1.153201
1.089937
0.994229
0.887167
0.780105
0.689913
0.629568
0.610751
0.621133
0.674989
0.768101
0.880029
0.994554
1.098696
1.182724
1.224251
1.232687
1.203163
1.121082
1.016291
0.906633
0.800868
0.714894
0.668176
0.657794
0.677909
0.748959
0.84856
0.961137
1.074688
1.17364
1.242095
1.273241
1.271943
1.224251
1.133735
1.024402
0.91377
0.815792
0.740524
0.706783
0.707107
0.742146
0.826498
0.933885
1.047112
1.155796
1.247611
1.302115
1.321257
1.307955
1.240149
1.140548
1.029592
0.91961
0.826823
0.766803
0.746364
0.756097
0.808979
0.902091
1.011424
1.124002
1.226522
1.305684
1.34494
1.349158
1.316714
1.231065
1.121731
1.009153
0.901766
0.812872
0.763559
0.751555
0.770372
0.839476
0.936156
1.044192
1.15385
1.247611
1.312497
1.336505
1.329367
1.274214
1.177858
1.064956
0.95108
0.849857
0.772967
0.738902
0.735982
0.769398
0.851804
0.955946
1.065929
1.171369
1.260588
1.311199
1.326123
1.309577
1.23658
1.134384
1.021482
0.909553
0.815792
0.752852
0.731115
0.740199
0.79438
0.887816
0.998447
1.111998
1.214194
1.293031
1.330665
1.336829
1.303413
1.218736
1.111998
1.000394
0.895927
0.809628
0.763883
0.755123
0.776536
0.849533
0.949458
1.059116
1.169423
1.26513
1.32807
1.354673
1.347536
1.292058
1.196026
1.081826
0.968275
0.866728
0.790162
0.755123
0.753177
0.788215
0.870621
0.974764
1.083448
1.18824
1.275187
1.322879
1.335856
1.314443
1.238202
1.134708
1.020833
0.909228
0.815143
0.753826
0.732738
0.741822
0.796975
0.889438
0.998447
1.109727
1.211274
1.289138
1.325799
1.330016
1.294004
1.208354
1.100319
0.987416
0.882625
0.798273
0.754799
0.746688
0.769398
0.844666
0.947511
1.060738
1.173316
1.271618
1.337154
1.363757
1.357917
1.303737
1.210625
1.101292
0.990661
0.894953
0.824876
0.796651
0.800868
0.84272
0.931614
1.042894
1.158392
1.269672
1.362784
1.417613
1.437403
1.424426
1.358891
1.266103
1.165854
1.067227
0.987092
0.935832
0.918312
0.928694
0.982225
1.068524
1.168449
1.268374
1.355971
1.421182
1.446812
1.445514
1.40788
1.324176
1.22198
1.120433
1.029592
0.959515
0.930965
0.937454
0.974115
1.061387
1.174289
1.294653
1.413071
1.515267
1.583397
1.614218
1.611623
1.556145
1.460113
1.346562
1.229767
1.123029
1.042245
1.001367
0.992607
1.021157
1.097723
1.194079
1.29368
1.387116
1.461735
1.497099
1.498396
1.465304
1.378357
1.263508
1.139575
1.019211
0.916366
0.847911
0.818712
0.818712
0.865754
0.949458
1.049707
1.152552
1.243393
1.308928
1.335207
1.329043
1.282
1.187591
1.069822
0.950431
0.840124
0.749608
0.700619
0.685695
0.704836
0.777509
0.877434
0.987741
1.096425
1.190835
1.25053
1.273565
1.263183
1.200892
1.102914
0.989687
0.87419
0.774265
0.699321
0.663634
0.658767
0.693157
0.77102
0.869648
0.972492
1.0682
1.145739
1.184346
1.189862
1.160338
1.076959
0.966653
0.847586
0.730142
0.630866
0.567277
0.540998
0.544892
0.597774
0.683748
0.785295
0.890736
0.983523
1.051654
1.080853
1.078582
1.032837
0.941671
0.829094
0.714569
0.607831
0.521857
0.478383
0.469624
0.492983
0.567277
0.668825
0.776536
0.884896
0.979306
1.03965
1.063333
1.05652
0.9965
0.903389
0.794704
0.684722
0.589014
0.521533
0.494929
0.498174
0.541647
0.629893
0.737604
0.849857
0.956271
1.043867
1.092857
1.107456
1.087666
1.013046
0.911175
0.802815
0.69705
0.607831
0.553651
0.535808
0.549109
0.610751
0.705161
0.81417
0.926099
1.024726
1.098048
1.132762
1.135682
1.094803
1.008829
0.900144
0.789189
0.687317
0.606534
0.564682
0.555922
0.58285
0.659092
0.759341
0.866403
0.974115
1.06528
1.123029
1.144766
1.13633
1.074364
0.978657
0.868999
0.758692
0.663958
0.597125
0.569224
0.571171
0.613671
0.699321
0.804112
0.915393
1.018886
1.103238
1.148659
1.160663
1.136979
1.061387
0.957893
0.84856
0.741822
0.651305
0.598423
0.580904
0.592908
0.655198
0.747986
0.853751
0.963084
1.05944
1.128544
1.160014
1.159365
1.114269
1.024077
0.914419
0.801841
0.699321
0.617889
0.57701
0.569548
0.595503
0.672069
0.773291
0.880678
0.987741
1.079231
1.134384
1.155472
1.144117
1.080204
0.982874
0.872243
0.759665
0.662985
0.594854
0.56598
0.567926
0.611725
0.697374
0.802166
0.911175
1.013046
1.095128
1.138277
1.14801
1.121407
1.041596
0.936156
0.825849
0.719111
0.627946
0.573766
0.555922
0.5689
0.632164
0.725924
0.832662
0.943294
1.040623
1.109403
1.140873
1.140873
1.093505
1.004287
0.894629
0.783349
0.681153
0.601667
0.56306
0.556896
0.585446
0.662336
0.76291
0.871594
0.978008
1.067875
1.12238
1.142819
1.130491
1.064956
0.966328
0.855697
0.74539
0.649034
0.583499
0.557544
0.561113
0.60848
0.696077
0.801193
0.911824
1.01402
1.093505
1.136006
1.144441
1.11654
1.03673
0.930641
0.819361
0.713596
0.624053
0.574739
0.560789
0.57701
0.642546
0.739226
0.846937
0.95692
1.053925
1.121407
1.152876
1.151254
1.103238
1.013695
0.905011
0.793731
0.693481
0.616267
0.579606
0.574415
0.604587
0.685046
0.787891
0.8969
1.004287
1.094479
1.149308
1.170071
1.157743
1.091234
0.992932
0.883923
0.772643
0.678233
0.614969
0.592908
0.599721
0.651305
0.739875
0.845315
0.956595
1.057818
1.137953
1.179804
1.187591
1.158716
1.077608
0.971844
0.86251
0.758043
0.671096
0.623404
0.610751
0.627622
0.696077
0.793731
0.90274
1.012722
1.108754
1.175911
1.205759
1.203812
1.154499
1.063658
0.954973
0.843369
0.744093
0.668825
0.635732
0.633137
0.666553
0.748635
0.852453
0.963733
1.070795
1.159365
1.211274
1.230416
1.215492
1.146388
1.047112
0.936805
0.827147
0.734035
0.673691
0.650332
0.658118
0.712298
0.803139
0.911499
1.022779
1.123353
1.201866
1.241771
1.249233
1.217763
1.135682
1.028944
0.917664
0.811574
0.724951
0.67726
0.665905
0.685046
0.755123
0.852453
0.961137
1.072417
1.168774
1.233336
1.261237
1.256695
1.204137
1.112323
1.003638
0.892033
0.792433
0.717165
0.682775
0.679855
0.714245
0.795353
0.900144
1.009478
1.114594
1.20219
1.252477
1.268699
1.250855
1.178831
1.078906
0.968275
0.858617
0.764207
0.703863
0.681477
0.68829
0.742146
0.832662
0.9394
1.049383
1.149632
1.224251
1.260912
1.265454
1.230091
1.145415
1.038028
0.926423
0.82001
0.735009
0.687317
0.674989
0.693806
0.764532
0.861861
0.97087
1.080204
1.174938
1.237229
1.262534
1.25637
1.198621
1.105185
0.994878
0.881976
0.783349
0.711001
0.678233
0.675962
0.711974
0.794055
0.8969
1.003962
1.10778
1.194079
1.241771
1.254424
1.234958
1.160014
1.058791
0.947187
0.836231
0.742795
0.683748
0.66266
0.670447
0.725276
0.814494
0.920583
1.030566
1.127246
1.201541
1.236904
1.238851
1.201217
1.113945
1.00526
0.893007
0.787242
0.701917
0.655847
0.643843
0.663958
0.734684
0.832338
0.939076
1.046463
1.13925
1.198621
1.220683
1.212572
1.153525
1.058467
0.946862
0.833636
0.73436
0.661687
0.629568
0.628919
0.666878
0.749284
0.852453
0.962111
1.065604
1.150281
1.195701
1.209328
1.187591
1.111025
1.007531
0.895602
0.785295
0.693806
0.635732
0.615942
0.626648
0.684073
0.775238
0.881652
0.992607
1.09091
1.163258
1.197648
1.198946
1.158392
1.070471
0.961137
0.84856
0.743444
0.658767
0.61432
0.605236
0.626648
0.69997
0.797624
0.905984
1.013371
1.105834
1.16488
1.187915
1.178507
1.118811
1.022779
0.912797
0.801517
0.703863
0.632488
0.601992
0.601992
0.642221
0.726249
0.83104
0.939725
1.042894
1.126273
1.172342
1.182724
1.159365
1.081502
0.978008
0.866079
0.757719
0.667527
0.610427
0.591285
0.601667
0.65974
0.751879
0.858941
0.969897
1.0682
1.141197
1.174938
1.176236
1.135033
1.047436
0.939076
0.826823
0.723653
0.642221
0.601343
0.593556
0.618862
0.69413
0.792109
0.89982
1.007207
1.098372
1.157419
1.179155
1.169747
1.108429
1.012722
0.902415
0.792109
0.695103
0.626324
0.597774
0.600369
0.643843
0.730142
0.835258
0.944916
1.048085
1.13114
1.175587
1.186293
1.161636
1.083773
0.980603
0.870945
0.76291
0.672718
0.618538
0.601992
0.613996
0.675638
0.768749
0.87711
0.988714
1.086368
1.157743
1.190835
1.192133
1.148659
1.05944
0.950107
0.8398
0.738902
0.658443
0.617889
0.610427
0.636706
0.713921
0.814819
0.923503
1.030566
1.121731
1.178182
1.198621
1.187915
1.124327
1.028295
0.917664
0.806384
0.710352
0.643194
0.616591
0.619835
0.664931
0.751555
0.857968
0.968599
1.07112
1.153201
1.195053
1.204786
1.178182
1.097074
0.992283
0.881327
0.775563
0.686344
0.636057
0.621133
0.636381
0.701268
0.795353
0.903389
1.013371
1.110376
1.178182
1.208679
1.20803
1.163583
1.073391
0.964382
0.852453
0.751879
0.673042
0.635084
0.629244
0.657469
0.737604
0.8398
0.949133
1.056196
1.147686
1.202515
1.22198
1.209003
1.142819
1.044841
0.93421
0.823254
0.729493
0.664282
0.638004
0.641897
0.689913
0.777509
0.883923
0.993905
1.095128
1.175587
1.217114
1.225549
1.197324
1.116216
1.0111
0.89982
0.793731
0.705485
0.65455
0.638652
0.653901
0.71976
0.815468
0.923179
1.034135
1.131464
1.198621
1.22782
1.225225
1.178507
1.087341
0.978332
0.866728
0.764207
0.686019
0.648385
0.643519
0.674015
0.75415
0.857319
0.966328
1.073391
1.163907
1.218412
1.235931
1.22198
1.152552
1.052627
0.941347
0.829743
0.735333
0.671096
0.646763
0.651954
0.700943
0.789189
0.895278
1.005585
1.106158
1.18532
1.2249
1.232038
1.201217
1.119136
1.012722
0.902415
0.795353
0.707756
0.659416
0.64579
0.661038
0.728195
0.824227
0.93129
1.039974
1.134059
1.198621
1.225225
1.221007
1.170396
1.077933
0.967626
0.85667
0.757394
0.680828
0.64579
0.64287
0.675313
0.755772
0.858617
0.966977
1.072093
1.160014
1.211923
1.229118
1.211923
1.140548
1.039325
0.928694
0.816765
0.722356
0.659416
0.635408
0.641572
0.692184
0.780429
0.886194
0.996825
1.09675
1.174613
1.212896
1.219061
1.186617
1.101292
0.993905
0.882301
0.776536
0.689588
0.640599
0.627622
0.645465
0.715867
0.811899
0.920259
1.028295
1.12238
1.18532
1.21095
1.206083
1.15385
1.059765
0.948809
0.835582
0.735657
0.660065
0.626
0.623404
0.657469
0.739551
0.84272
0.951729
1.05652
1.143792
1.193755
1.20803
1.190186
1.119136
1.017264
0.906308
0.795677
0.701268
0.640275
0.617564
0.624377
0.676611
0.76583
0.871919
0.981577
1.081177
1.155796
1.192133
1.197324
1.162934
1.077608
0.969248
0.857644
0.751555
0.665905
0.619186
0.607507
0.626
0.696077
0.792433
0.899495
1.007856
1.101292
1.163258
1.188564
1.181751
1.127571
1.032837
0.922206
0.810601
0.711974
0.637355
0.604587
0.603614
0.639301
0.721382
0.824876
0.93421
1.037703
1.123353
1.171045
1.183698
1.163907
1.089612
0.98839
0.876461
0.766803
0.673367
0.61432
0.593232
0.601343
0.655847
0.747013
0.853751
0.963733
1.061387
1.136979
1.172342
1.176884
1.140873
1.054898
0.946538
0.835582
0.732089
0.648385
0.603938
0.593556
0.614644
0.686993
0.784647
0.893331
1.002016
1.09383
1.155148
1.178507
1.170396
1.112971
1.018886
0.909228
0.797948
0.698672
0.626
0.593881
0.593232
0.632164
0.717165
0.823254
0.932587
1.036406
1.121407
1.169098
1.1824
1.162285
1.088315
0.986767
0.87711
0.768425
0.677584
0.619511
0.600045
0.608156
0.66558
0.756421
0.863159
0.973466
1.072093
1.146388
1.181751
1.183698
1.145739
1.059116
0.951729
0.840124
0.738253
0.655523
0.612373
0.604263
0.627297
0.700943
0.800544
0.908255
1.016291
1.109078
1.168125
1.190835
1.182075
1.123353
1.028295
0.917339
0.806059
0.709054
0.638977
0.60848
0.610102
0.650981
0.735657
0.841422
0.950431
1.053276
1.136979
1.184022
1.196675
1.173316
1.09675
0.993256
0.883274
0.773616
0.682126
0.626648
0.609129
0.621133
0.680504
0.772967
0.881003
0.99131
1.090586
1.163258
1.19635
1.196999
1.156445
1.0682
0.958218
0.846613
0.745066
0.663309
0.62308
0.617889
0.64287
0.718463
0.819036
0.929019
1.037379
1.130815
1.189537
1.211923
1.201866
1.141197
1.043867
0.933561
0.823578
0.727222
0.658767
0.631515
0.635084
0.67726
0.764207
0.870621
0.981577
1.084746
1.166827
1.211599
1.222629
1.197648
1.11946
1.015317
0.903064
0.796326
0.705161
0.651954
0.635732
0.64871
0.710027
0.803464
0.911175
1.020833
1.117189
1.187591
1.218736
1.217763
1.174289
1.084097
0.975412
0.864132
0.761612
0.679206
0.639301
0.631839
0.657794
0.733711
0.834285
0.94232
1.049058
1.139575
1.195053
1.214519
1.203163
1.138926
1.041596
0.930965
0.82001
0.723005
0.653576
0.625026
0.627297
0.671096
0.758368
0.864781
0.974115
1.075662
1.156445
1.197972
1.206732
1.180129
1.099994
0.994554
0.884247
0.775887
0.685046
0.631839
0.614969
0.628271
0.688939
0.782376
0.888789
0.998123
1.094479
1.162285
1.191484
1.189862
1.142819
1.051978
0.941023
0.827147
0.7256
0.645141
0.605885
0.599072
0.626648
0.703214
0.803139
0.910526
1.016291
1.105834
1.15969
1.177858
1.16488
1.099021
1.000069
0.88814
0.77686
0.680504
0.613347
0.587717
0.591285
0.636381
0.723653
0.830067
0.9394
1.041272
1.121731
1.163258
1.171694
1.14509
1.063982
0.959191
0.849533
0.742146
0.650981
0.597774
0.581228
0.594854
0.658767
0.753826
0.86251
0.972168
1.068849
1.137304
1.168125
1.166178
1.118487
1.026997
0.917664
0.806384
0.706134
0.628595
0.59161
0.587392
0.616267
0.694779
0.796326
0.904362
1.009153
1.097074
1.149957
1.167151
1.153201
1.086692
0.98839
0.878083
0.767127
0.672069
0.608156
0.583499
0.589339
0.63703
0.7256
0.831689
0.941671
1.043219
1.121407
1.160987
1.167151
1.136979
1.054574
0.948809
0.837205
0.730142
0.642546
0.593232
0.578633
0.595503
0.661038
0.75707
0.864781
0.975088
1.072093
1.138277
1.166503
1.162934
1.113945
1.022455
0.912148
0.800544
0.699321
0.622755
0.586743
0.58285
0.613022
0.693806
0.796326
0.904037
1.009478
1.097399
1.149632
1.165854
1.149957
1.081177
0.979954
0.869648
0.759016
0.664607
0.601343
0.578308
0.585121
0.634759
0.72268
0.828445
0.9394
1.038677
1.116865
1.155472
1.161961
1.130491
1.047436
0.941671
0.830716
0.723978
0.636381
0.588041
0.575064
0.591934
0.65974
0.756421
0.864781
0.973466
1.068524
1.132762
1.160014
1.15677
1.105185
1.013695
0.904037
0.793082
0.693157
0.618213
0.582526
0.57993
0.612698
0.692832
0.795353
0.904362
1.009802
1.097399
1.148334
1.164232
1.148659
1.077608
0.977683
0.867377
0.757719
0.665256
0.603614
0.581228
0.589339
0.640275
0.729493
0.836231
0.947187
1.046138
1.123029
1.161312
1.166827
1.134059
1.050032
0.94232
0.831365
0.726249
0.640599
0.593232
0.580255
0.599072
0.668825
0.766154
0.873541
0.983199
1.077608
1.140873
1.167151
1.161636
1.109078
1.014993
0.905335
0.793731
0.693481
0.619511
0.586743
0.585446
0.620484
0.702241
0.806384
0.914744
1.020833
1.107132
1.156121
1.170396
1.152228
1.080853
0.979306
0.868674
0.75999
0.667202
0.605885
0.58285
0.590637
0.643194
0.733386
0.8398
0.950756
1.051005
1.126598
1.163907
1.168449
1.134384
1.049058
0.942645
0.832987
0.729169
0.644817
0.599396
0.58869
0.607507
0.677909
0.777185
0.884896
0.993905
1.088963
1.151254
1.17656
1.17072
1.114594
1.020833
0.910202
0.798597
0.700294
0.627297
0.594854
0.593232
0.630217
0.713596
0.818387
0.927721
1.032512
1.117838
1.165854
1.178831
1.159041
1.086044
0.984172
0.872892
0.763883
0.671096
0.613022
0.593232
0.602316
0.658443
0.749932
0.857968
0.969248
1.068524
1.144117
1.179155
1.181751
1.14509
1.058791
0.950756
0.839476
0.736306
0.652603
0.607507
0.597774
0.619835
0.692832
0.792433
0.900144
1.008504
1.101941
1.162285
1.185644
1.177209
1.11946
1.025375
0.914744
0.803139
0.704836
0.634759
0.603938
0.604587
0.64287
0.726249
0.829743
0.938103
1.040299
1.124002
1.171045
1.183698
1.163258
1.08799
0.985794
0.874514
0.764856
0.671744
0.613996
0.594205
0.60556
0.664931
0.756745
0.864457
0.974764
1.072742
1.145415
1.178182
1.179804
1.139575
1.051329
0.941671
0.829418
0.724951
0.641897
0.599396
0.589014
0.612373
0.685695
0.785295
0.893331
1.002016
1.09383
1.152552
1.175262
1.166503
1.107132
1.010451
0.899171
0.787242
0.689913
0.618862
0.589339
0.589663
0.629244
0.713596
0.819361
0.928045
1.03089
1.115242
1.160663
1.171694
1.149957
1.073391
0.969573
0.858293
0.749284
0.658767
0.603614
0.584472
0.595179
0.654225
0.746688
0.853751
0.963733
1.061062
1.134384
1.168125
1.169747
1.129193
1.040299
0.931939
0.819361
0.717165
0.634435
0.59453
0.587392
0.611725
0.686993
0.786918
0.895278
1.002665
1.094479
1.151254
1.172991
1.162609
1.101292
1.004611
0.893007
0.780429
0.682451
0.613671
0.586419
0.58869
0.630542
0.716192
0.822605
0.933236
1.035108
1.11654
1.160663
1.170396
1.144441
1.064956
0.960489
0.847911
0.739551
0.64871
0.59453
0.577659
0.590637
0.652603
0.747013
0.854399
0.966653
1.06528
1.135682
1.167151
1.166178
1.12238
1.032837
0.922854
0.810926
0.709054
0.626324
0.586094
0.579606
0.606534
0.683748
0.785295
0.894304
1.002665
1.09383
1.150605
1.170396
1.159365
1.094803
0.996825
0.886194
0.774914
0.678882
0.6114
0.583175
0.587392
0.63119
0.718138
0.823903
0.933885
1.036081
1.118162
1.160987
1.17072
1.144441
1.064307
0.960164
0.849208
0.741822
0.652927
0.600694
0.584797
0.599072
0.662985
0.757719
0.865754
0.977035
1.074688
1.143792
1.174289
1.172991
1.126598
1.035432
0.925774
0.813521
0.710676
0.63119
0.592583
0.586094
0.613022
0.690886
0.793406
0.90274
1.010127
1.100967
1.157094
1.177533
1.166503
1.101941
1.003638
0.893007
0.782051
0.685695
0.618862
0.59161
0.596152
0.642546
0.729169
0.836556
0.946538
1.04841
1.129517
1.171045
1.179155
1.151254
1.070795
0.965355
0.854075
0.747337
0.659416
0.608156
0.592259
0.606534
0.670771
0.76583
0.873541
0.983848
1.080528
1.147686
1.176236
1.174613
1.127246
1.035757
0.925125
0.812223
0.710676
0.633137
0.595503
0.590961
0.621133
0.699646
0.801841
0.911175
1.018237
1.107456
1.160663
1.179155
1.165529
1.097399
0.998447
0.887167
0.775887
0.68018
0.614969
0.589663
0.596152
0.646114
0.734684
0.842071
0.952053
1.0536
1.132437
1.172667
1.179155
1.149632
1.066578
0.960164
0.849533
0.743768
0.655847
0.606209
0.591934
0.609129
0.675313
0.771994
0.880029
0.989363
1.084746
1.149957
1.178182
1.175262
1.1253
1.032512
0.92253
0.809952
0.709703
0.629893
0.595179
0.591285
0.622106
0.702241
0.806384
0.915717
1.021482
1.110052
1.162285
1.178831
1.162609
1.092857
0.993581
0.881003
0.770372
0.675313
0.612698
0.58869
0.593556
0.644168
0.732089
0.838827
0.949458
1.049707
1.12822
1.168774
1.174938
1.144117
1.060413
0.953027
0.842071
0.735982
0.649359
0.601343
0.587717
0.604587
0.672393
0.768749
0.87711
0.988065
1.083773
1.14801
1.17656
1.172991
1.121407
1.029592
0.920259
0.808006
0.709054
0.633786
0.599396
0.597125
0.629893
0.710676
0.813521
0.923179
1.028619
1.117838
1.169098
1.18532
1.1678
1.096101
0.995852
0.884572
0.774265
0.68018
0.618862
0.595503
0.603289
0.655847
0.74539
0.852128
0.963084
1.064956
1.143144
1.180453
1.186942
1.152876
1.067875
0.960813
0.848235
0.742146
0.655198
0.60848
0.597125
0.616267
0.686344
0.784971
0.893331
1.003314
1.097723
1.160663
1.186617
1.182075
1.127895
1.034783
0.924477
0.81125
0.711649
0.637355
0.604263
0.601667
0.635732
0.718463
0.823254
0.933885
1.03965
1.127246
1.175911
1.190511
1.171369
1.097399
0.9965
0.886194
0.776536
0.681802
0.622431
0.601992
0.611076
0.665256
0.756421
0.863808
0.974764
1.074364
1.148983
1.185644
1.188888
1.154499
1.0682
0.95984
0.847586
0.742146
0.655523
0.610427
0.598747
0.618862
0.689588
0.788215
0.896251
1.00526
1.099994
1.162285
1.187591
1.1824
1.126273
1.031863
0.921557
0.809303
0.709703
0.636057
0.603614
0.602965
0.640275
0.723653
0.827796
0.936481
1.039974
1.126598
1.175262
1.189213
1.168774
1.093181
0.99131
0.879381
0.770696
0.678557
0.62016
0.599396
0.608805
0.665256
0.756421
0.864781
0.975088
1.073391
1.147686
1.182724
1.184995
1.146388
1.059116
0.950431
0.837205
0.733711
0.649034
0.604587
0.595503
0.617889
0.691859
0.79146
0.900793
1.009802
1.10259
1.162609
1.185644
1.177858
1.119136
1.023753
0.912148
0.799895
0.700294
0.627946
0.595827
0.596801
0.635084
0.720085
0.825525
0.935183
1.038677
1.124651
1.171369
1.184022
1.161961
1.086044
0.983199
0.872568
0.762261
0.668825
0.6114
0.590637
0.601343
0.659416
0.751555
0.85959
0.97087
1.069822
1.141846
1.175262
1.176884
1.136979
1.048734
0.939725
0.828769
0.724951
0.64287
0.600369
0.592908
0.61724
0.690237
0.789837
0.897224
1.005585
1.098048
1.155796
1.177858
1.168449
1.108429
1.011424
0.900144
0.789189
0.69121
0.621782
0.592583
0.593556
0.636381
0.721058
0.826823
0.937129
1.040299
1.123678
1.1678
1.178182
1.154174
1.076311
0.972492
0.860888
0.752852
0.662336
0.607831
0.589014
0.600694
0.662011
0.755448
0.862835
0.974764
1.07404
1.14509
1.177858
1.179155
1.13633
1.047112
0.938103
0.825525
0.722356
0.640923
0.600369
0.593232
0.618213
0.695752
0.796975
0.905335
1.01402
1.106483
1.162934
1.183373
1.172018
1.108754
1.011424
0.900469
0.78854
0.692184
0.624053
0.596476
0.600369
0.643843
0.729493
0.835258
0.946214
1.048734
1.133086
1.176236
1.187266
1.163583
1.083448
0.979306
0.867377
0.759016
0.667851
0.613996
0.598098
0.610751
0.673691
0.768749
0.878083
0.988714
1.086044
1.157094
1.189213
1.187915
1.143468
1.051978
0.941671
0.829418
0.726249
0.644168
0.603614
0.597774
0.624377
0.702565
0.805086
0.914095
1.023753
1.115242
1.171694
1.192782
1.180778
1.116865
1.019211
0.906957
0.794704
0.697374
0.628595
0.601343
0.604911
0.650656
0.737928
0.844018
0.955298
1.057818
1.139899
1.182075
1.191159
1.16488
1.084746
0.979954
0.867052
0.759341
0.668825
0.615618
0.599396
0.612049
0.675638
0.77102
0.879381
0.990661
1.088315
1.15677
1.18824
1.186617
1.140873
1.049707
0.940049
0.828769
0.727547
0.64871
0.609778
0.604263
0.632813
0.711649
0.813197
0.922854
1.029592
1.120758
1.173965
1.192782
1.179155
1.111025
1.011749
0.89982
0.787891
0.690237
0.624702
0.598747
0.60264
0.649359
0.737928
0.844018
0.955622
1.057494
1.137628
1.178831
1.187266
1.158716
1.077933
0.972168
0.860888
0.753826
0.664607
0.613022
0.59745
0.612049
0.67726
0.772967
0.879056
0.989687
1.086368
1.154499
1.184022
1.180453
1.132113
1.039974
0.929343
0.816765
0.715543
0.637355
0.600369
0.595827
0.626
0.705485
0.808006
0.917988
1.024077
1.112971
1.166178
1.183373
1.169423
1.101292
1.000394
0.889114
0.777834
0.681477
0.61724
0.592259
0.597774
0.648061
0.736955
0.844666
0.954973
1.056196
1.135357
1.174938
1.1824
1.151903
1.068524
0.962111
0.849857
0.743444
0.65455
0.604587
0.590312
0.606209
0.673367
0.769074
0.877434
0.987741
1.083124
1.148983
1.17656
1.173965
1.123678
1.031863
0.922206
0.809303
0.709703
0.632813
0.598098
0.594854
0.626973
0.706783
0.810277
0.918961
1.02505
1.11362
1.164232
1.181102
1.165529
1.095128
0.995203
0.88522
0.774589
0.679206
0.616591
0.592908
0.600045
0.65163
0.741173
0.847262
0.95984
1.061062
1.138926
1.176884
1.183373
1.150605
1.066578
0.957244
0.844991
0.738577
0.651954
0.603938
0.590961
0.609129
0.677584
0.776211
0.884247
0.994229
1.090261
1.155472
1.183049
1.178182
1.1253
1.032837
0.921881
0.80833
0.707107
0.632488
0.597125
0.593556
0.628271
0.709703
0.813521
0.92253
1.028619
1.117189
1.168125
1.184346
1.168449
1.097399
0.997149
0.884896
0.774265
0.679206
0.619186
0.596152
0.605236
0.658443
0.749608
0.85667
0.968275
1.068524
1.14509
1.183373
1.188888
1.15385
1.068849
0.960813
0.848884
0.740524
0.655198
0.607831
0.596801
0.616267
0.687317
0.78562
0.895278
1.006233
1.100319
1.163258
1.188888
1.183049
1.127895
1.034135
0.92253
0.809303
0.710352
0.636057
0.603289
0.601343
0.638004
0.721382
0.826174
0.936156
1.040948
1.127571
1.17656
1.191484
1.172342
1.098048
0.995852
0.884572
0.77394
0.680828
0.621133
0.598423
0.607183
0.662985
0.755448
0.864132
0.975088
1.075662
1.149632
1.18532
1.188564
1.151579
1.064956
0.955298
0.841422
0.735982
0.650007
0.60556
0.594854
0.616267
0.688939
0.789513
0.899171
1.010127
1.105834
1.168774
1.192782
1.184995
1.127246
1.032837
0.921232
0.808006
0.708081
0.63411
0.602316
0.601343
0.638977
0.72268
0.827472
0.936805
1.040948
1.126922
1.174289
1.186942
1.166503
1.09091
0.987741
0.876136
0.766478
0.674015
0.615618
0.596152
0.606858
0.664607
0.756421
0.864781
0.976386
1.075013
1.148659
1.183698
1.185644
1.14801
1.060413
0.951729
0.839476
0.735982
0.651305
0.607831
0.598747
0.620484
0.693481
0.793731
0.901442
1.010127
1.104212
1.164556
1.188564
1.181751
1.123353
1.027646
0.916041
0.804112
0.70581
0.635084
0.605236
0.605885
0.646114
0.730467
0.836231
0.944916
1.049383
1.134059
1.181102
1.19343
1.17072
1.094479
0.990985
0.880678
0.771994
0.679855
0.622431
0.604587
0.616591
0.675313
0.768749
0.87711
0.987741
1.087341
1.160014
1.194079
1.195701
1.154499
1.066253
0.956271
0.843044
0.740199
0.657145
0.614644
0.606209
0.630542
0.705485
0.80541
0.914419
1.023428
1.11654
1.174613
1.197648
1.187915
1.127246
1.031215
0.920583
0.80833
0.710352
0.640923
0.611076
0.612373
0.65455
0.740199
0.845964
0.956271
1.060089
1.144441
1.189213
1.200568
1.176236
1.097723
0.993905
0.882625
0.772643
0.681802
0.625675
0.607507
0.619511
0.680828
0.775563
0.883923
0.994554
1.092857
1.162934
1.195053
1.195377
1.152552
1.06236
0.951729
0.838178
0.734684
0.652603
0.611076
0.603614
0.628595
0.705485
0.807032
0.91669
1.024726
1.116216
1.172342
1.192782
1.181751
1.118162
1.019535
0.905984
0.792109
0.693806
0.623729
0.595179
0.598098
0.642221
0.729493
0.836556
0.947187
1.050356
1.133411
1.177209
1.187266
1.160987
1.080853
0.974439
0.863483
0.75415
0.662985
0.608805
0.592259
0.606534
0.670122
0.763883
0.873216
0.984496
1.081826
1.150605
1.181102
1.179804
1.134059
1.044192
0.935507
0.820659
0.718463
0.638652
0.598423
0.592259
0.619186
0.69705
0.79957
0.908255
1.015642
1.107456
1.162609
1.181751
1.168774
1.102914
1.003314
0.89106
0.778482
0.680828
0.612698
0.586094
0.590312
0.636706
0.725276
0.832338
0.943943
1.047436
1.129193
1.171045
1.180129
1.152552
1.07112
0.964706
0.852128
0.744093
0.653576
0.602316
0.587392
0.60264
0.667527
0.763559
0.873216
0.984821
1.082475
1.150281
1.179804
1.178182
1.131464
1.04257
0.930965
0.818387
0.718138
0.638652
0.600369
0.596152
0.626648
0.707107
0.810601
0.920583
1.028944
1.119136
1.172991
1.191808
1.179155
1.111349
1.012722
0.901118
0.790162
0.694779
0.629893
0.60556
0.611076
0.65974
0.747986
0.855373
0.967302
1.069498
1.149957
1.190186
1.197324
1.168125
1.084746
0.978981
0.867377
0.760639
0.672718
0.622431
0.608805
0.626
0.693157
0.789189
0.898198
1.008504
1.105509
1.172018
1.200892
1.197648
1.148983
1.056845
0.945889
0.833311
0.733062
0.654874
0.618213
0.615293
0.646114
0.726249
0.830391
0.940049
1.047436
1.136979
1.189862
1.206732
1.194079
1.125949
1.027321
0.916041
0.803464
0.707432
0.642546
0.617889
0.626
0.675962
0.767452
0.874514
0.986443
1.08799
1.167476
1.206732
1.214194
1.183049
1.09967
0.992932
0.881652
0.775238
0.68829
0.639626
0.626324
0.643519
0.712298
0.810601
0.920583
1.031215
1.127895
1.194728
1.22198
1.218087
1.166827
1.07404
0.96276
0.850506
0.749284
0.672393
0.638328
0.636057
0.669798
0.752852
0.857644
0.969248
1.076959
1.167151
1.219385
1.235931
1.219061
1.147037
1.046463
0.934858
0.824552
0.729493
0.666229
0.643194
0.651954
0.705485
0.796975
0.90566
1.019211
1.120758
1.199919
1.238202
1.243393
1.210301
1.1253
1.015642
0.903064
0.796975
0.710027
0.662336
0.650981
0.669473
0.740199
0.838502
0.94816
1.059116
1.155796
1.219709
1.246962
1.24242
1.188564
1.09383
0.981577
0.868026
0.767452
0.690886
0.655847
0.653901
0.688615
0.771994
0.87711
0.98839
1.094154
1.183373
1.23366
1.249557
1.231713
1.15969
1.056845
0.944916
0.832338
0.737604
0.675962
0.65455
0.662336
0.717489
0.807681
0.916041
1.026673
1.126922
1.203163
1.238526
1.24242
1.206408
1.120433
1.011424
0.898522
0.792757
0.706459
0.660065
0.648385
0.6685
0.738902
0.837529
0.947187
1.057494
1.151903
1.213545
1.237553
1.230416
1.173316
1.078906
0.966328
0.853102
0.753826
0.679206
0.646763
0.64579
0.6831
0.767127
0.872568
0.983199
1.088963
1.17656
1.225549
1.239824
1.220358
1.14509
1.042894
0.930965
0.820334
0.726573
0.66558
0.643843
0.653576
0.709703
0.800219
0.908255
1.020184
1.120433
1.195377
1.231713
1.235931
1.19927
1.112323
1.003962
0.892358
0.787242
0.701917
0.657469
0.648061
0.670447
0.742795
0.842395
0.952378
1.061711
1.156121
1.21679
1.239824
1.232038
1.174613
1.079879
0.968275
0.854724
0.755448
0.682775
0.651954
0.653252
0.691859
0.776211
0.883274
0.994878
1.09967
1.184995
1.231389
1.245015
1.223278
1.146712
1.043219
0.930641
0.820334
0.727222
0.670447
0.650332
0.661687
0.720409
0.813521
0.923179
1.035108
1.135682
1.210625
1.244042
1.246313
1.206408
1.117513
1.006882
0.894304
0.789837
0.705161
0.661363
0.653576
0.67726
0.751879
0.852128
0.962111
1.071444
1.165529
1.224251
1.247286
1.237878
1.178831
1.08215
0.969897
0.856995
0.759016
0.687642
0.656821
0.659092
0.699646
0.785944
0.893656
1.00526
1.110052
1.194728
1.240473
1.253126
1.230416
1.153201
1.048734
0.936481
0.826823
0.735009
0.678557
0.65974
0.671096
0.730467
0.823903
0.933885
1.044516
1.143468
1.216141
1.249882
1.251504
1.209328
1.120109
1.010127
0.8969
0.793082
0.710676
0.667851
0.659416
0.683748
0.759341
0.860888
0.970546
1.078582
1.171045
1.229442
1.251504
1.241771
1.180453
1.084097
0.97379
0.862186
0.765181
0.696077
0.667527
0.67142
0.713596
0.79957
0.90566
1.016615
1.119784
1.202839
1.246637
1.256695
1.232687
1.153201
1.04841
0.937454
0.829094
0.738902
0.683748
0.6685
0.679855
0.740199
0.834285
0.942645
1.054574
1.152876
1.224251
1.255721
1.255721
1.212572
1.123029
1.013046
0.900793
0.796975
0.714569
0.675962
0.668825
0.695428
0.773291
0.874839
0.984496
1.092532
1.18532
1.241771
1.262534
1.251179
1.187266
1.088639
0.978657
0.866079
0.769074
0.700294
0.672393
0.676286
0.720085
0.806384
0.912797
1.023753
1.126922
1.209976
1.253126
1.263508
1.237229
1.158392
1.052627
0.940374
0.831689
0.741173
0.687642
0.672393
0.686344
0.749608
0.844991
0.953675
1.064631
1.161961
1.231389
1.262534
1.261561
1.217763
1.125949
1.015642
0.903713
0.801193
0.721382
0.682775
0.676286
0.702565
0.779456
0.882301
0.990985
1.099021
1.189862
1.244042
1.263832
1.252477
1.18824
1.090261
0.980603
0.869323
0.773291
0.707432
0.682126
0.686993
0.733386
0.820334
0.925774
1.03673
1.138277
1.219385
1.259939
1.26805
1.241446
1.161312
1.054898
0.942969
0.83396
0.744093
0.692508
0.678882
0.695752
0.761612
0.85667
0.966653
1.077608
1.174938
1.242744
1.272592
1.269996
1.222305
1.13114
1.020184
0.907606
0.80541
0.7256
0.686993
0.682775
0.712947
0.792109
0.895927
1.004611
1.111998
1.203488
1.257343
1.27389
1.260263
1.193106
1.09383
0.98255
0.87127
0.776536
0.710352
0.684397
0.690237
0.737604
0.825849
0.933561
1.044192
1.145739
1.225874
1.266428
1.273241
1.244042
1.161636
1.055223
0.943618
0.835582
0.746688
0.695103
0.68018
0.695752
0.762261
0.857644
0.966004
1.076959
1.173965
1.240797
1.269347
1.266103
1.216465
1.124327
1.013046
0.89982
0.798273
0.71976
0.682451
0.678557
0.70873
0.787891
0.89106
1.000394
1.107132
1.19635
1.248584
1.264805
1.249233
1.181102
1.080528
0.968599
0.856346
0.760963
0.696401
0.67142
0.677584
0.727547
0.816116
0.921881
1.032512
1.132762
1.211599
1.249233
1.25637
1.225549
1.141521
1.034459
0.921881
0.814819
0.727222
0.677909
0.664282
0.681477
0.748959
0.845315
0.954649
1.064307
1.159041
1.223603
1.249557
1.244366
1.192782
1.100319
0.989687
0.878083
0.777509
0.69997
0.665256
0.662336
0.693157
0.773291
0.877434
0.987092
1.092857
1.181426
1.233011
1.249233
1.232038
1.161961
1.060738
0.948809
0.838178
0.743119
0.680828
0.658443
0.664931
0.716516
0.80541
0.911824
1.022779
1.123353
1.200244
1.238202
1.243393
1.210301
1.126598
1.018562
0.908579
0.803139
0.715867
0.6685
0.656172
0.674989
0.743444
0.840773
0.949458
1.060089
1.155472
1.219061
1.245015
1.240797
1.187915
1.094803
0.983848
0.872243
0.770696
0.696726
0.663309
0.661363
0.695103
0.77686
0.881003
0.990661
1.09675
1.184022
1.234309
1.249882
1.232362
1.160987
1.060089
0.949133
0.838502
0.744742
0.682775
0.661363
0.669473
0.721707
0.812548
0.919935
1.031539
1.130491
1.207057
1.243717
1.248259
1.213221
1.127571
1.021157
0.909228
0.804112
0.718138
0.673691
0.66266
0.682451
0.751879
0.850506
0.95984
1.069173
1.163583
1.225874
1.250855
1.245664
1.192457
1.097074
0.987092
0.87419
0.773291
0.698672
0.66558
0.664282
0.698997
0.782051
0.886518
0.995852
1.09967
1.185644
1.233984
1.247611
1.229767
1.155472
1.053276
0.942969
0.832662
0.740524
0.68018
0.659092
0.6685
0.723329
0.813521
0.921557
1.032512
1.13114
1.205434
1.240797
1.244042
1.206732
1.120758
1.0111
0.898522
0.794055
0.70873
0.663634
0.653576
0.675313
0.746688
0.844991
0.954
1.062684
1.156121
1.217114
1.240797
1.23366
1.176236
1.081502
0.970221
0.857644
0.758692
0.685046
0.653901
0.653576
0.690886
0.774265
0.879705
0.98839
1.092208
1.177858
1.224251
1.237553
1.217114
1.142819
1.039325
0.927397
0.817414
0.7256
0.665905
0.647736
0.657145
0.713921
0.806384
0.914419
1.02505
1.122704
1.195701
1.22782
1.229118
1.191484
1.105509
0.9965
0.885545
0.780429
0.696077
0.653252
0.643519
0.664607
0.73728
0.836231
0.944591
1.054249
1.147361
1.207057
1.229118
1.220034
1.162609
1.066253
0.954649
0.842071
0.744093
0.672393
0.641248
0.640923
0.678233
0.762585
0.867052
0.97671
1.079555
1.163583
1.209003
1.221007
1.198297
1.12238
1.017588
0.905011
0.795353
0.703214
0.645465
0.626648
0.637355
0.693806
0.78562
0.893331
1.003314
1.102265
1.174289
1.207705
1.208354
1.167151
1.078582
0.968924
0.854724
0.75123
0.668176
0.625026
0.616267
0.640599
0.714894
0.815143
0.922854
1.03089
1.123678
1.182075
1.202839
1.19343
1.134059
1.038352
0.927397
0.815468
0.717814
0.646439
0.616267
0.617889
0.65974
0.745066
0.850831
0.961786
1.064631
1.14801
1.192133
1.203163
1.180453
1.102914
1.000069
0.889114
0.7827
0.692184
0.637355
0.619186
0.631515
0.693157
0.787891
0.8969
1.00818
1.106158
1.177533
1.209976
1.211274
1.168449
1.078906
0.969897
0.856995
0.755123
0.674664
0.635408
0.628919
0.655523
0.731115
0.833311
0.943618
1.051654
1.143792
1.201866
1.222629
1.212247
1.150605
1.053925
0.943294
0.830067
0.733711
0.665256
0.637679
0.641897
0.684397
0.772318
0.879056
0.990012
1.094154
1.177209
1.220358
1.229118
1.204137
1.124002
1.018237
0.905335
0.796975
0.706783
0.654225
0.638328
0.653252
0.715867
0.809952
0.917988
1.026997
1.124651
1.195701
1.225874
1.224576
1.180778
1.091559
0.981577
0.86835
0.765181
0.684722
0.644168
0.637355
0.663309
0.740199
0.841422
0.950431
1.058467
1.149957
1.206408
1.225549
1.212896
1.148659
1.050032
0.940049
0.828769
0.733062
0.665256
0.638977
0.643194
0.687966
0.775238
0.881652
0.991634
1.093181
1.175262
1.21679
1.2249
1.198297
1.117838
1.011749
0.898847
0.79146
0.701592
0.64871
0.633786
0.647412
0.710676
0.805086
0.913446
1.024402
1.121082
1.189213
1.218412
1.216465
1.17072
1.080204
0.971195
0.858293
0.756097
0.676611
0.638652
0.633786
0.661038
0.739875
0.841747
0.95108
1.057818
1.147686
1.200892
1.219385
1.205434
1.139575
1.041272
0.929992
0.817739
0.721707
0.654874
0.629244
0.63411
0.680828
0.767776
0.874514
0.984821
1.085719
1.166178
1.206408
1.213545
1.185969
1.104212
0.998771
0.886843
0.780429
0.69121
0.640599
0.625351
0.640923
0.706459
0.800868
0.908579
1.019211
1.115567
1.183049
1.210625
1.207705
1.158392
1.067551
0.95692
0.845315
0.744093
0.666229
0.629568
0.624702
0.654874
0.73436
0.836231
0.94524
1.052303
1.143144
1.195377
1.211274
1.196675
1.129193
1.029917
0.918637
0.807681
0.713272
0.648061
0.622755
0.628919
0.677909
0.766478
0.873216
0.984496
1.085395
1.164556
1.203812
1.209652
1.180129
1.097723
0.992283
0.880354
0.774914
0.686019
0.636706
0.623404
0.638328
0.704836
0.800544
0.908579
1.019211
1.115567
1.183049
1.211274
1.207705
1.159041
1.0682
0.958542
0.846613
0.745715
0.6685
0.633137
0.629893
0.661363
0.742795
0.84564
0.955298
1.063009
1.152876
1.204137
1.220683
1.205434
1.13633
1.03673
0.92545
0.816765
0.72268
0.65974
0.635732
0.643194
0.693481
0.781402
0.889438
1.000394
1.09967
1.177209
1.214843
1.219709
1.187591
1.104212
0.998123
0.887167
0.782376
0.696726
0.650332
0.637679
0.656172
0.724627
0.820659
0.928694
1.039001
1.133735
1.198621
1.224576
1.219709
1.1678
1.074688
0.964382
0.851804
0.752203
0.67434
0.639301
0.637355
0.671096
0.752852
0.856995
0.965679
1.071444
1.160338
1.210301
1.226198
1.209328
1.13925
1.037054
0.926748
0.816765
0.723005
0.660065
0.636706
0.644492
0.695428
0.785295
0.893331
1.004287
1.104536
1.182075
1.219061
1.222954
1.18824
1.103238
0.995203
0.883598
0.776211
0.691859
0.64579
0.634435
0.653576
0.723005
0.820334
0.927721
1.036406
1.13114
1.194079
1.220034
1.214519
1.161636
1.068849
0.957244
0.84564
0.746688
0.671096
0.637679
0.636057
0.670771
0.752852
0.856022
0.964706
1.069498
1.156445
1.206083
1.219709
1.200244
1.127246
1.024726
0.912473
0.800868
0.707432
0.647412
0.625675
0.635408
0.690561
0.780753
0.888789
0.999745
1.099021
1.174938
1.210301
1.212247
1.177533
1.091883
0.982225
0.870621
0.764856
0.679206
0.632813
0.622106
0.641897
0.713921
0.81125
0.91961
1.026997
1.121082
1.180453
1.203163
1.195053
1.13925
1.044516
0.934534
0.822605
0.723978
0.651305
0.619835
0.619511
0.656172
0.740199
0.844666
0.953027
1.054898
1.140548
1.188564
1.199919
1.179804
1.104861
1.002665
0.89106
0.780753
0.688939
0.630217
0.609454
0.619835
0.674989
0.766478
0.874514
0.985145
1.084097
1.159041
1.193106
1.195701
1.15969
1.073715
0.965031
0.852777
0.749608
0.664931
0.620484
0.6114
0.63411
0.707107
0.806384
0.914744
1.024077
1.117513
1.177533
1.199595
1.190835
1.132437
1.037054
0.925125
0.812223
0.713596
0.640599
0.609778
0.610427
0.649359
0.734035
0.8398
0.950431
1.054898
1.140548
1.185969
1.198297
1.177533
1.102265
0.998771
0.886518
0.777185
0.686019
0.629568
0.611076
0.622431
0.679531
0.771345
0.879705
0.990012
1.088963
1.162609
1.195053
1.196026
1.157094
1.068849
0.960489
0.848235
0.744742
0.661363
0.61724
0.608805
0.632488
0.706783
0.806384
0.915393
1.024402
1.11654
1.174289
1.196026
1.185644
1.126273
1.030241
0.919286
0.806384
0.709378
0.639301
0.608805
0.6114
0.65163
0.735982
0.841747
0.951729
1.05652
1.139575
1.184022
1.194728
1.171369
1.094803
0.990661
0.879381
0.769723
0.678882
0.621782
0.603938
0.614644
0.674989
0.768101
0.876461
0.986767
1.084097
1.155796
1.187591
1.187591
1.146388
1.058142
0.948485
0.835258
0.732738
0.650332
0.609778
0.603614
0.627297
0.703539
0.803788
0.912148
1.020508
1.113296
1.171694
1.19343
1.183049
1.121407
1.023428
0.912148
0.799895
0.701268
0.631839
0.602316
0.604911
0.647412
0.733062
0.839151
0.949133
1.051329
1.133411
1.176236
1.18532
1.161312
1.083124
0.977683
0.865754
0.755448
0.665256
0.611076
0.593881
0.607183
0.6685
0.76291
0.87127
0.98255
1.080528
1.151579
1.183049
1.183373
1.140224
1.051005
0.940374
0.827796
0.724302
0.642221
0.601667
0.596152
0.621782
0.698348
0.798273
0.906308
1.013046
1.104212
1.159365
1.178182
1.166178
1.102914
1.005909
0.893331
0.781727
0.685046
0.617889
0.590961
0.594854
0.638328
0.7256
0.831689
0.941347
1.043867
1.125624
1.166827
1.175911
1.148983
1.069822
0.963084
0.851804
0.744742
0.65455
0.601018
0.584797
0.599396
0.662336
0.756097
0.864457
0.975412
1.073066
1.141846
1.171369
1.169747
1.124002
1.03381
0.924801
0.812548
0.710676
0.630866
0.593232
0.588365
0.616591
0.695103
0.796975
0.90566
1.012398
1.102914
1.158392
1.176236
1.164232
1.099345
1.000394
0.888789
0.778158
0.682126
0.616267
0.590961
0.596152
0.642546
0.729493
0.835582
0.946214
1.048085
1.129842
1.171369
1.179804
1.151903
1.072093
0.964706
0.854399
0.747661
0.659092
0.606209
0.592259
0.607831
0.673367
0.768101
0.877434
0.988065
1.083773
1.152552
1.181102
1.179155
1.132762
1.042245
0.931939
0.820659
0.718138
0.639626
0.602965
0.599072
0.628595
0.707756
0.810601
0.919935
1.026024
1.115891
1.170071
1.186942
1.172991
1.105834
1.007207
0.8969
0.785944
0.69121
0.626
0.601667
0.607507
0.65455
0.743444
0.850182
0.960164
1.061711
1.141521
1.1824
1.189537
1.160014
1.078257
0.971519
0.85959
0.750906
0.663309
0.613996
0.600694
0.617564
0.684722
0.780429
0.888789
0.997798
1.093181
1.15969
1.187915
1.184995
1.137628
1.046787
0.935183
0.821956
0.720734
0.642546
0.606209
0.603614
0.635408
0.716192
0.820334
0.929992
1.035757
1.124651
1.177209
1.193106
1.177858
1.109078
1.009478
0.898198
0.786918
0.692832
0.629568
0.604911
0.612698
0.660389
0.750257
0.856995
0.968924
1.069173
1.14801
1.186293
1.192457
1.161312
1.079555
0.971519
0.859915
0.753177
0.664931
0.615618
0.603614
0.621133
0.689588
0.78562
0.89398
1.004611
1.099021
1.164556
1.191159
1.186293
1.134708
1.042245
0.931939
0.818712
0.718787
0.642546
0.607183
0.604911
0.638977
0.720734
0.824227
0.93421
1.039974
1.12822
1.177533
1.193106
1.176236
1.105509
1.004611
0.894629
0.786269
0.69121
0.627946
0.604911
0.612698
0.664931
0.755123
0.862835
0.974115
1.074364
1.15093
1.18824
1.19343
1.160338
1.075662
0.968275
0.855048
0.749284
0.661363
0.613671
0.601992
0.621133
0.690886
0.789189
0.897873
1.007531
1.101941
1.166178
1.191808
1.18532
1.131788
1.038352
0.927721
0.815792
0.715867
0.640599
0.606209
0.604911
0.639626
0.721707
0.824227
0.933885
1.040299
1.12822
1.177533
1.192133
1.174613
1.10259
1.002016
0.89106
0.780753
0.686668
0.625351
0.60264
0.611725
0.66558
0.756097
0.863483
0.974764
1.075013
1.15093
1.187266
1.191808
1.157094
1.072417
0.964057
0.852777
0.747337
0.661363
0.614644
0.603938
0.623404
0.694455
0.794055
0.903713
1.012722
1.109078
1.171694
1.195377
1.188888
1.132762
1.038677
0.92837
0.814819
0.715867
0.641897
0.609129
0.608805
0.645141
0.728195
0.832338
0.941023
1.046463
1.133411
1.180129
1.192782
1.172991
1.098048
0.994554
0.882301
0.772643
0.678882
0.619835
0.599072
0.609129
0.663634
0.754474
0.861537
0.973141
1.072417
1.148334
1.183049
1.185644
1.147361
1.060738
0.951404
0.839476
0.733711
0.648385
0.603289
0.593556
0.61432
0.686668
0.785295
0.895278
1.003962
1.098696
1.160014
1.183373
1.174938
1.11654
1.01986
0.908579
0.796002
0.69705
0.624702
0.593881
0.595503
0.635084
0.719436
0.823903
0.93421
1.039001
1.124651
1.172018
1.184022
1.163258
1.087017
0.984172
0.870945
0.75999
0.666553
0.608156
0.58869
0.600369
0.659092
0.752528
0.860888
0.971844
1.071769
1.145415
1.17948
1.180778
1.141521
1.053925
0.944267
0.832014
0.727222
0.642546
0.599072
0.590961
0.61432
0.687966
0.787242
0.896251
1.003962
1.09675
1.155472
1.177858
1.169098
1.109727
1.014344
0.902415
0.789837
0.691535
0.619511
0.589339
0.59161
0.631839
0.71684
0.82293
0.93421
1.038028
1.122055
1.166827
1.177858
1.155472
1.078582
0.975088
0.863808
0.753826
0.662011
0.606209
0.587392
0.599396
0.658767
0.751555
0.860239
0.971195
1.069498
1.140224
1.172991
1.17364
1.131788
1.043219
0.933885
0.820983
0.717165
0.633786
0.59161
0.584148
0.609454
0.684722
0.784647
0.892682
1.001042
1.092532
1.149632
1.170396
1.158392
1.09675
0.998447
0.886194
0.77394
0.675313
0.60556
0.576686
0.579281
0.622431
0.710027
0.816116
0.928045
1.031539
1.115242
1.158067
1.167476
1.143468
1.06528
0.962111
0.849857
0.742146
0.65163
0.597774
0.580255
0.593556
0.655523
0.749608
0.858293
0.970221
1.0682
1.139575
1.171694
1.171694
1.128544
1.038028
0.927721
0.815468
0.713272
0.631839
0.592259
0.586419
0.613996
0.692184
0.795677
0.905335
1.014344
1.107132
1.164556
1.183698
1.171369
1.106807
1.008504
0.897224
0.785944
0.689264
0.621458
0.59453
0.599072
0.643843
0.732413
0.841098
0.953027
1.056196
1.138926
1.181102
1.189537
1.163583
1.084746
0.97963
0.866403
0.758043
0.6685
0.615618
0.600045
0.616267
0.679855
0.775887
0.886518
0.998771
1.096425
1.165854
1.196026
1.19343
1.147686
1.057169
0.946862
0.833636
0.731115
0.650656
0.612373
0.605885
0.634435
0.711974
0.814494
0.92545
1.034783
1.126598
1.183049
1.20219
1.189862
1.124651
1.026024
0.912797
0.800868
0.705485
0.638652
0.611725
0.616267
0.663309
0.751555
0.859266
0.969897
1.072417
1.15385
1.194728
1.20219
1.174938
1.093181
0.987416
0.874514
0.767127
0.677584
0.626973
0.612698
0.629568
0.695103
0.790486
0.900144
1.011749
1.109403
1.176884
1.205759
1.202839
1.155148
1.063982
0.953675
0.840773
0.739551
0.65974
0.622431
0.617889
0.647736
0.727222
0.830716
0.941023
1.048734
1.139899
1.193755
1.211923
1.196999
1.128869
1.029268
0.917339
0.805086
0.710027
0.644492
0.619186
0.623729
0.671096
0.759016
0.866728
0.978981
1.080528
1.160338
1.200892
1.207705
1.179155
1.096101
0.989687
0.877434
0.770372
0.681802
0.630542
0.616267
0.632164
0.699321
0.795028
0.904037
1.014344
1.1107
1.177209
1.206408
1.203163
1.153201
1.060413
0.949133
0.836556
0.734684
0.656172
0.619186
0.614969
0.646114
0.726898
0.829094
0.937778
1.04549
1.134708
1.186293
1.205759
1.191808
1.121731
1.021482
0.907931
0.795028
0.698348
0.633786
0.609778
0.618538
0.669149
0.757719
0.864781
0.976386
1.077608
1.157094
1.196999
1.202515
1.17072
1.087017
0.979954
0.867052
0.761288
0.672718
0.623729
0.6114
0.629568
0.697374
0.793731
0.903064
1.013046
1.1107
1.176236
1.202839
1.198297
1.147037
1.0536
0.942969
0.83104
0.730467
0.654225
0.619186
0.615293
0.64871
0.729818
0.834609
0.944916
1.051005
1.139899
1.190511
1.205759
1.188888
1.117838
1.016615
0.904037
0.793406
0.69997
0.637355
0.615618
0.623729
0.675638
0.766154
0.874839
0.986767
1.087666
1.165854
1.203812
1.20803
1.174938
1.089288
0.981252
0.868026
0.761288
0.674015
0.627622
0.614969
0.635084
0.704836
0.802166
0.912148
1.021806
1.117189
1.180453
1.20511
1.199595
1.147037
1.053925
0.94232
0.830067
0.730791
0.65455
0.622106
0.620809
0.655198
0.73728
0.841098
0.952378
1.057494
1.145415
1.194728
1.209328
1.192133
1.119136
1.017264
0.905335
0.795677
0.701917
0.640275
0.618862
0.627946
0.6831
0.774914
0.883274
0.994229
1.094803
1.170396
1.206732
1.209976
1.174613
1.088639
0.97963
0.867701
0.761936
0.675638
0.630217
0.619186
0.638977
0.710352
0.809952
0.918637
1.028944
1.123678
1.185969
1.210301
1.202839
1.147361
1.052627
0.941347
0.827472
0.72852
0.653576
0.620809
0.62016
0.657469
0.740848
0.846289
0.957244
1.063333
1.149308
1.197648
1.211274
1.190186
1.117189
1.015642
0.903713
0.793082
0.69997
0.639626
0.618862
0.628271
0.683424
0.774914
0.881976
0.993905
1.092857
1.168125
1.203488
1.206083
1.169423
1.083124
0.97379
0.861861
0.757394
0.672718
0.628595
0.619835
0.641572
0.715218
0.814819
0.924801
1.034459
1.128869
1.189862
1.214194
1.205434
1.148659
1.052303
0.940698
0.827796
0.729493
0.657145
0.626
0.627297
0.667202
0.751879
0.857968
0.968924
1.073715
1.15969
1.207057
1.219061
1.197648
1.12238
1.017588
0.905335
0.795353
0.702241
0.643519
0.624702
0.635732
0.693157
0.786593
0.894953
1.007207
1.107132
1.181751
1.215816
1.217114
1.178182
1.090586
0.980279
0.867701
0.762585
0.679531
0.636706
0.627946
0.650332
0.723653
0.823903
0.933561
1.042894
1.136006
1.195701
1.217438
1.20803
1.148983
1.0536
0.94232
0.83104
0.732738
0.658767
0.627946
0.628271
0.669473
0.755123
0.861212
0.975088
1.083124
1.169747
1.216141
1.227496
1.204137
1.126598
1.022455
0.909228
0.79957
0.707432
0.650007
0.633786
0.646114
0.704836
0.798922
0.908904
1.019211
1.117189
1.190186
1.22198
1.223927
1.182075
1.093181
0.984496
0.87127
0.767452
0.685695
0.645141
0.638977
0.663958
0.739551
0.840449
0.950107
1.059765
1.15385
1.211923
1.233336
1.222954
1.161961
1.064631
0.953027
0.8398
0.743444
0.67434
0.646114
0.649359
0.690886
0.777509
0.885545
0.997474
1.100643
1.184022
1.228794
1.239175
1.215492
1.13633
1.030566
0.917664
0.80833
0.717489
0.66266
0.644817
0.656821
0.717489
0.811574
0.920583
1.033161
1.132762
1.205434
1.237553
1.236255
1.193106
1.103563
0.993905
0.880678
0.777185
0.694455
0.653901
0.648061
0.673691
0.750581
0.852777
0.96276
1.07112
1.163907
1.222629
1.24242
1.232038
1.168449
1.071444
0.958866
0.845964
0.747337
0.678233
0.650332
0.653901
0.698023
0.785295
0.892682
1.003962
1.109078
1.192457
1.235931
1.244691
1.218736
1.13925
1.033486
0.919935
0.811574
0.720085
0.666229
0.649359
0.66266
0.724627
0.819685
0.927721
1.039974
1.137628
1.209003
1.240149
1.239175
1.194404
1.104861
0.994554
0.881976
0.778482
0.697699
0.658443
0.653576
0.680504
0.758368
0.85959
0.969897
1.077608
1.169423
1.225225
1.245015
1.233011
1.167476
1.068849
0.956271
0.843369
0.746364
0.677584
0.650007
0.65455
0.700943
0.788864
0.897224
1.007856
1.1107
1.192133
1.234309
1.24242
1.215167
1.134384
1.026997
0.913446
0.806059
0.715543
0.66266
0.645141
0.660389
0.726249
0.821956
0.93129
1.042894
1.140873
1.209328
1.238526
1.236904
1.189862
1.097723
0.987092
0.873216
0.770372
0.690886
0.652603
0.648061
0.678233
0.758692
0.862835
0.972817
1.081177
1.171369
1.225549
1.243069
1.228794
1.160663
1.061062
0.94816
0.835907
0.740199
0.67434
0.647736
0.654225
0.702565
0.791784
0.900469
1.013046
1.115567
1.197648
1.238526
1.246313
1.218087
1.134384
1.028295
0.916366
0.80833
0.718787
0.668176
0.653901
0.668825
0.73728
0.834285
0.943943
1.055223
1.151903
1.219709
1.248584
1.245015
1.196675
1.103563
0.991958
0.879056
0.77686
0.698997
0.663309
0.659416
0.690561
0.77102
0.875812
0.986119
1.094479
1.184022
1.237229
1.253775
1.238851
1.170071
1.069822
0.957244
0.845315
0.750581
0.686344
0.662011
0.668825
0.719111
0.808655
0.917015
1.029268
1.13114
1.210625
1.249882
1.255397
1.225549
1.141846
1.034783
0.92253
0.814819
0.727222
0.678557
0.666553
0.685046
0.752528
0.848884
0.957569
1.068524
1.164232
1.231065
1.257019
1.252153
1.201217
1.108105
0.995852
0.882949
0.780753
0.703539
0.669473
0.666229
0.698348
0.780429
0.88522
0.996825
1.104536
1.194728
1.245988
1.260912
1.245988
1.175587
1.073066
0.960813
0.84856
0.752852
0.69121
0.667851
0.675962
0.729169
0.819036
0.925125
1.036081
1.13633
1.212896
1.250206
1.255397
1.222305
1.138926
1.034135
0.924801
0.820659
0.732089
0.681153
0.667202
0.682775
0.750581
0.846289
0.955622
1.064631
1.16488
1.236255
1.266103
1.262534
1.209328
1.115567
1.003962
0.887816
0.78562
0.708405
0.673691
0.671744
0.704512
0.78562
0.890411
1.001367
1.111349
1.203163
1.255721
1.269996
1.253126
1.180778
1.075986
0.964382
0.853102
0.758368
0.696726
0.673367
0.680828
0.734035
0.825849
0.934534
1.047112
1.147686
1.225549
1.263183
1.26805
1.23366
1.147361
1.039001
0.925774
0.819361
0.733386
0.686019
0.674664
0.694455
0.76583
0.864457
0.97379
1.083773
1.178182
1.241446
1.266103
1.258641
1.204461
1.110052
0.999745
0.887167
0.788215
0.713921
0.679855
0.679855
0.715543
0.797624
0.903389
1.012722
1.117513
1.20511
1.254424
1.267076
1.248259
1.174613
1.072417
0.960164
0.849533
0.756745
0.696077
0.674989
0.684073
0.738902
0.830716
0.938427
1.049707
1.150605
1.226522
1.262534
1.265454
1.228794
1.141521
1.032837
0.919935
0.81417
0.729169
0.684073
0.674664
0.697699
0.770696
0.870621
0.979954
1.088963
1.182724
1.244691
1.267725
1.259615
1.202515
1.106807
0.996176
0.882949
0.783998
0.710027
0.677909
0.678233
0.71684
0.800544
0.907606
1.019211
1.124327
1.209976
1.257992
1.269996
1.249233
1.174289
1.073066
0.960813
0.851155
0.758692
0.69997
0.678882
0.689588
0.747986
0.841098
0.948485
1.060089
1.159041
1.233336
1.266103
1.267725
1.228469
1.140873
1.031863
0.919286
0.813845
0.729493
0.685695
0.676286
0.698348
0.771345
0.871919
0.981577
1.090586
1.183373
1.243717
1.265454
1.256046
1.197648
1.101292
0.98839
0.875812
0.77686
0.704188
0.672718
0.673367
0.712623
0.798273
0.904362
1.01402
1.117513
1.20219
1.247286
1.258966
1.237229
1.160014
1.056196
0.942969
0.832987
0.739551
0.681802
0.66266
0.673042
0.731115
0.823903
0.932587
1.043219
1.141846
1.216141
1.250206
1.251504
1.212572
1.123353
1.013371
0.900144
0.796002
0.711974
0.669473
0.66266
0.685371
0.758368
0.858617
0.967302
1.075662
1.168125
1.227171
1.248908
1.238851
1.178831
1.081502
0.969897
0.856995
0.758692
0.687317
0.656821
0.657794
0.699321
0.784322
0.891385
1.00234
1.106158
1.189213
1.233336
1.243069
1.219385
1.140548
1.03673
0.925125
0.815792
0.725924
0.670771
0.651954
0.662985
0.72268
0.815468
0.923503
1.034459
1.133086
1.203812
1.234958
1.234309
1.191808
1.102265
0.99131
0.87711
0.771994
0.689264
0.646439
0.638977
0.664282
0.740848
0.841747
0.950756
1.059116
1.150605
1.208354
1.228469
1.21679
1.154823
1.056845
0.944267
0.830391
0.732413
0.662011
0.633137
0.635408
0.677584
0.76291
0.869323
0.978008
1.080204
1.163258
1.207381
1.21679
1.192782
1.116216
1.013046
0.901766
0.793082
0.701917
0.647088
0.629568
0.642546
0.705485
0.79957
0.907606
1.017588
1.115567
1.186293
1.217438
1.216465
1.17364
1.083124
0.973141
0.859915
0.75707
0.674989
0.636057
0.628919
0.656172
0.733062
0.834933
0.944267
1.053925
1.144766
1.201541
1.221656
1.210301
1.146063
1.048085
0.936805
0.824552
0.727547
0.658443
0.630542
0.635408
0.680828
0.769074
0.875487
0.987416
1.090261
1.172991
1.215816
1.225225
1.198621
1.119136
1.01402
0.902091
0.793406
0.703214
0.651305
0.636381
0.650981
0.714894
0.810277
0.920583
1.033486
1.131788
1.201866
1.231713
1.229767
1.184671
1.093181
0.98255
0.870297
0.768749
0.688615
0.649034
0.643194
0.669798
0.746688
0.848884
0.959191
1.066902
1.158716
1.214843
1.234958
1.223603
1.160338
1.06236
0.950431
0.838502
0.743119
0.676286
0.650332
0.655198
0.702241
0.789189
0.895602
1.006558
1.109078
1.190186
1.231713
1.238851
1.211274
1.130166
1.024077
0.911175
0.802815
0.713596
0.66266
0.647736
0.662985
0.727871
0.824227
0.932263
1.04257
1.139899
1.20803
1.237553
1.235282
1.187591
1.095452
0.985794
0.872892
0.77102
0.69121
0.653576
0.650007
0.678557
0.757394
0.861212
0.971844
1.080528
1.172342
1.226847
1.243717
1.228794
1.160663
1.061062
0.949133
0.83688
0.740848
0.67434
0.64871
0.65455
0.701917
0.790811
0.898198
1.008829
1.109403
1.189213
1.230091
1.236904
1.207705
1.125949
1.020833
0.909877
0.803464
0.715218
0.665256
0.650981
0.667202
0.733711
0.830067
0.9394
1.049383
1.145415
1.211599
1.239824
1.236255
1.186293
1.09383
0.983199
0.869648
0.768425
0.690561
0.652927
0.649034
0.68018
0.75999
0.862835
0.972168
1.079231
1.169747
1.222305
1.238526
1.223278
1.155472
1.055871
0.944267
0.832662
0.73728
0.672069
0.646439
0.652603
0.701268
0.789189
0.896251
1.007531
1.110052
1.189213
1.228469
1.234958
1.202839
1.118811
1.013046
0.901766
0.796326
0.707432
0.658443
0.644492
0.661687
0.729169
0.826174
0.933885
1.043219
1.139899
1.205759
1.232362
1.227171
1.175587
1.082475
0.971195
0.858941
0.75707
0.68018
0.643843
0.640275
0.673042
0.75415
0.856995
0.966977
1.07404
1.162609
1.213221
1.228145
1.211599
1.140548
1.039001
0.928045
0.817414
0.72268
0.659416
0.636381
0.644817
0.697374
0.786593
0.894953
1.006233
1.107132
1.184995
1.222305
1.226522
1.193755
1.108429
1.001367
0.889438
0.783024
0.696077
0.648061
0.634759
0.652927
0.72268
0.821307
0.928694
1.038677
1.134384
1.198946
1.225549
1.219709
1.167151
1.07404
0.96276
0.849208
0.748635
0.672393
0.637679
0.635084
0.669473
0.752203
0.858293
0.969573
1.074688
1.162285
1.211599
1.2249
1.206732
1.134059
1.032188
0.920259
0.809303
0.716516
0.654874
0.632488
0.641897
0.695103
0.78562
0.893331
1.005585
1.104861
1.180778
1.217114
1.221007
1.185644
1.099994
0.991634
0.878732
0.771994
0.686019
0.63995
0.627946
0.64871
0.720734
0.82001
0.929992
1.041272
1.136006
1.197972
1.22198
1.214843
1.160014
1.064307
0.95108
0.838502
0.738902
0.663958
0.631515
0.631515
0.668825
0.752852
0.857968
0.968924
1.074364
1.160987
1.208679
1.221656
1.201866
1.128544
1.026024
0.914095
0.803139
0.711001
0.652279
0.631515
0.641248
0.696726
0.78854
0.895927
1.007856
1.108754
1.183698
1.218412
1.221332
1.183698
1.095452
0.986443
0.874514
0.769723
0.684397
0.63995
0.630217
0.651305
0.724627
0.82293
0.932263
1.04257
1.137304
1.199595
1.22198
1.214194
1.155472
1.060413
0.947836
0.834933
0.736306
0.663309
0.631515
0.632164
0.670122
0.75415
0.858617
0.968924
1.07404
1.160987
1.208354
1.220683
1.19927
1.124327
1.020508
0.907282
0.797624
0.704836
0.647088
0.627622
0.638328
0.695103
0.787566
0.895278
1.006558
1.104861
1.177858
1.212247
1.21387
1.174613
1.087017
0.978008
0.865106
0.760639
0.676611
0.633461
0.624053
0.646114
0.719436
0.819036
0.927721
1.036406
1.129517
1.189862
1.211923
1.202515
1.142819
1.047436
0.935832
0.821956
0.72268
0.650981
0.619835
0.621782
0.661687
0.747337
0.854075
0.964057
1.069173
1.15385
1.200568
1.212247
1.189862
1.114269
1.010775
0.898522
0.788864
0.695752
0.638977
0.62016
0.630866
0.688939
0.782051
0.890736
1.00234
1.100967
1.174613
1.207705
1.208679
1.168449
1.080853
0.971519
0.85959
0.755772
0.672393
0.630217
0.621782
0.64579
0.721382
0.82293
0.932587
1.040948
1.132762
1.191808
1.213545
1.202839
1.142495
1.045814
0.933885
0.821307
0.723978
0.65455
0.626
0.627622
0.669798
0.756097
0.861861
0.972168
1.075337
1.159041
1.203488
1.213545
1.190186
1.113296
1.009478
0.897224
0.788215
0.696726
0.641572
0.624053
0.635408
0.696077
0.790811
0.899171
1.009478
1.109078
1.181102
1.212572
1.213221
1.17072
1.081502
0.972168
0.858941
0.75415
0.671744
0.629893
0.622755
0.646763
0.723005
0.823578
0.932587
1.040948
1.133735
1.191484
1.212247
1.201217
1.138926
1.041596
0.930965
0.819685
0.72268
0.653576
0.625026
0.627622
0.669473
0.755448
0.861212
0.971195
1.074364
1.15677
1.200568
1.209976
1.184346
1.104861
0.999745
0.887167
0.778482
0.687966
0.633461
0.615942
0.629893
0.691859
0.786593
0.895278
1.006882
1.104212
1.174289
1.206083
1.204786
1.160338
1.071444
0.960813
0.84856
0.746039
0.664931
0.624702
0.617564
0.643519
0.722031
0.823903
0.93421
1.04257
1.135682
1.19343
1.21387
1.203488
1.141197
1.04257
0.930965
0.818712
0.722031
0.654225
0.627297
0.63119
0.676611
0.764532
0.871919
0.982874
1.085719
1.168125
1.211599
1.220358
1.194728
1.115242
1.010775
0.899495
0.792109
0.701917
0.64871
0.632488
0.646763
0.711001
0.806384
0.91377
1.025375
1.122055
1.192133
1.222954
1.221332
1.17656
1.086692
0.978008
0.866728
0.764532
0.686019
0.647412
0.641897
0.670771
0.750581
0.852777
0.963084
1.069822
1.160014
1.215167
1.234309
1.221332
1.156121
1.057818
0.946862
0.835258
0.740199
0.67434
0.648385
0.652279
0.698672
0.78562
0.893331
1.004611
1.106807
1.187915
1.229118
1.237553
1.210301
1.130815
1.026348
0.914744
0.80833
0.71976
0.667851
0.652603
0.666878
0.731115
0.826498
0.935507
1.046138
1.142819
1.211923
1.240797
1.236904
1.190186
1.099021
0.989687
0.877434
0.776536
0.699321
0.661363
0.656821
0.686344
0.764207
0.867377
0.975737
1.081502
1.171694
1.224576
1.24242
1.228794
1.162934
1.064307
0.953027
0.84272
0.747337
0.682126
0.657469
0.662985
0.711974
0.801193
0.906957
1.01694
1.118487
1.197648
1.236904
1.245015
1.214843
1.133735
1.027321
0.916041
0.809303
0.721058
0.670771
0.656172
0.672069
0.738253
0.834285
0.944916
1.055223
1.151903
1.218736
1.247286
1.245664
1.19635
1.104861
0.994878
0.881652
0.77978
0.701268
0.664931
0.661038
0.692508
0.772643
0.874514
0.984172
1.09091
1.181426
1.233336
1.249882
1.234633
1.16488
1.06528
0.954649
0.843693
0.747986
0.684397
0.660389
0.666229
0.715867
0.805086
0.912148
1.023104
1.123678
1.202839
1.241771
1.247611
1.216465
1.132113
1.025699
0.914095
0.807032
0.721058
0.672393
0.659092
0.676611
0.744742
0.842395
0.950756
1.061062
1.156445
1.221007
1.248908
1.24534
1.194404
1.100643
0.990012
0.876785
0.776536
0.701917
0.666229
0.662985
0.695428
0.77686
0.879705
0.988714
1.093505
1.181102
1.232038
1.248584
1.231713
1.161961
1.061711
0.95108
0.840773
0.746364
0.683748
0.662011
0.668825
0.720409
0.808979
0.915717
1.026348
1.126598
1.203812
1.241122
1.246637
1.213221
1.128544
1.021806
0.908904
0.802815
0.716192
0.669149
0.657794
0.676611
0.745715
0.844018
0.952378
1.062036
1.157743
1.220683
1.24534
1.238526
1.184995
1.091234
0.980603
0.86835
0.768425
0.693481
0.660065
0.657469
0.691859
0.77394
0.878407
0.986443
1.09091
1.178182
1.226847
1.242095
1.224251
1.152876
1.051329
0.940374
0.830716
0.73728
0.676611
0.655523
0.663958
0.718787
0.810601
0.917988
1.027646
1.127571
1.203488
1.2395
1.242744
1.207705
1.122055
1.014669
0.904037
0.798597
0.713596
0.667851
0.656496
0.676611
0.747337
0.844666
0.954
1.064307
1.158716
1.221656
1.246313
1.240473
1.184995
1.090586
0.981252
0.86835
0.769723
0.69705
0.664931
0.664607
0.700943
0.783349
0.889438
0.999096
1.102914
1.188564
1.236255
1.249882
1.231065
1.156445
1.054574
0.942645
0.832987
0.740524
0.681477
0.660065
0.669473
0.724951
0.816116
0.923179
1.032837
1.132762
1.207381
1.24242
1.24534
1.207705
1.120433
1.011749
0.900144
0.796975
0.712623
0.669473
0.661687
0.684073
0.756421
0.854724
0.96276
1.07112
1.163907
1.224251
1.246962
1.239175
1.1824
1.088315
0.978332
0.865106
0.766478
0.695103
0.662985
0.663309
0.700294
0.783673
0.888789
0.99942
1.103563
1.189537
1.237229
1.248908
1.227171
1.151579
1.04841
0.936156
0.826823
0.73436
0.676611
0.657145
0.667851
0.7256
0.818063
0.925774
1.035757
1.135033
1.209328
1.243717
1.246313
1.207057
1.118811
1.009478
0.896251
0.792109
0.708405
0.664931
0.655523
0.678557
0.752203
0.852453
0.961786
1.07112
1.163583
1.223278
1.246637
1.238202
1.178831
1.083773
0.972168
0.858293
0.758692
0.687642
0.657469
0.658443
0.698997
0.784322
0.89106
1.001691
1.106483
1.191159
1.236255
1.246637
1.223278
1.14509
1.041272
0.929343
0.820334
0.72852
0.672718
0.654874
0.667527
0.726898
0.819361
0.926748
1.037703
1.136655
1.208679
1.240797
1.241122
1.200244
1.1107
1.000394
0.889438
0.786269
0.703863
0.661038
0.652279
0.676611
0.751555
0.851804
0.961137
1.069822
1.161961
1.220358
1.241446
1.231065
1.169747
1.073715
0.963084
0.851155
0.753177
0.683748
0.653901
0.655523
0.69705
0.782051
0.887491
0.998447
1.101941
1.184995
1.229442
1.238526
1.212572
1.134708
1.030241
0.918312
0.809303
0.718787
0.664931
0.648061
0.659416
0.721058
0.814819
0.922206
1.033486
1.131464
1.202839
1.234633
1.234958
1.192133
1.104212
0.994229
0.880678
0.777509
0.696077
0.655198
0.648385
0.674664
0.752203
0.855048
0.964057
1.073066
1.165529
1.222954
1.24242
1.231713
1.168125
1.070471
0.959515
0.848884
0.751879
0.685371
0.657794
0.660065
0.704188
0.789189
0.895278
1.006233
1.10778
1.189862
1.233011
1.243069
1.218087
1.138602
1.034135
0.922854
0.815468
0.725924
0.672718
0.656172
0.669798
0.733386
0.82812
0.936805
1.048734
1.147037
1.216141
1.246637
1.244366
1.197648
1.10778
0.998447
0.886194
0.784322
0.704188
0.665256
0.658767
0.685695
0.762261
0.864781
0.974764
1.08215
1.172667
1.227171
1.246313
1.233011
1.168449
1.071444
0.960813
0.849533
0.752852
0.685371
0.657794
0.661363
0.707432
0.79438
0.901442
1.011749
1.112971
1.194404
1.237229
1.245988
1.218087
1.136979
1.03089
0.920259
0.812548
0.723005
0.671744
0.657145
0.671096
0.735982
0.830391
0.938427
1.04841
1.144766
1.212896
1.242095
1.240149
1.19343
1.101616
0.990336
0.877758
0.775887
0.697374
0.660065
0.654874
0.684073
0.76291
0.86543
0.976386
1.083448
1.173965
1.228469
1.245664
1.231713
1.163907
1.063658
0.951729
0.841422
0.745715
0.679531
0.654225
0.65974
0.707107
0.796975
0.904362
1.014344
1.116216
1.197324
1.238851
1.246962
1.218412
1.135682
1.02797
0.915393
0.807032
0.717165
0.665905
0.652279
0.667851
0.734035
0.829094
0.938427
1.048734
1.146063
1.213545
1.244366
1.241122
1.192133
1.101941
0.990985
0.876461
0.775887
0.69705
0.660389
0.655847
0.685695
0.765181
0.867701
0.976386
1.08215
1.171369
1.224576
1.240797
1.2249
1.15677
1.057494
0.945889
0.835258
0.740199
0.675962
0.652279
0.658767
0.707432
0.796326
0.903389
1.013695
1.114269
1.192782
1.23074
1.23658
1.205434
1.121731
1.014993
0.903389
0.796651
0.70873
0.65974
0.646114
0.663634
0.73144
0.826174
0.93421
1.042245
1.137628
1.202839
1.229767
1.2249
1.173316
1.080528
0.969897
0.858293
0.759341
0.684073
0.650007
0.648385
0.682451
0.764856
0.868674
0.978008
1.083448
1.172342
1.223278
1.238851
1.22198
1.151579
1.051005
0.937778
0.826498
0.732413
0.669473
0.646114
0.654225
0.70581
0.796002
0.904686
1.015966
1.117189
1.195377
1.232362
1.236904
1.203163
1.120433
1.013695
0.901766
0.795353
0.708405
0.661038
0.649683
0.667851
0.736955
0.834609
0.942645
1.051978
1.147037
1.21095
1.23658
1.231065
1.177858
1.085719
0.974439
0.862835
0.763559
0.687966
0.652927
0.649683
0.6831
0.765181
0.869972
0.97963
1.086044
1.17364
1.223927
1.238526
1.220034
1.148659
1.047761
0.936805
0.826174
0.733062
0.672718
0.650981
0.658443
0.712298
0.801193
0.906633
1.017588
1.117513
1.194728
1.231713
1.235282
1.201217
1.116216
1.008504
0.896575
0.79146
0.705161
0.65974
0.64871
0.667527
0.737928
0.835582
0.944267
1.0536
1.147686
1.209328
1.23366
1.227171
1.172342
1.078582
0.967626
0.855373
0.756097
0.6831
0.650981
0.650007
0.685695
0.768425
0.873216
0.981901
1.086368
1.172991
1.221332
1.233984
1.214194
1.140224
1.038677
0.927721
0.818712
0.726898
0.666878
0.646114
0.65455
0.710676
0.801517
0.908255
1.019211
1.118487
1.193106
1.228145
1.231065
1.194404
1.109727
1.001691
0.890087
0.784971
0.698997
0.653901
0.64287
0.664607
0.736306
0.834933
0.944267
1.053925
1.14801
1.209652
1.233984
1.228469
1.172991
1.079231
0.969897
0.857319
0.75707
0.684073
0.652603
0.653576
0.690561
0.77394
0.879056
0.98839
1.091559
1.176884
1.223278
1.235931
1.214519
1.138926
1.037703
0.926423
0.816765
0.724627
0.666878
0.646114
0.656496
0.712298
0.804112
0.912148
1.022455
1.121082
1.196026
1.230091
1.233011
1.194404
1.106158
0.997474
0.886194
0.782376
0.697374
0.653901
0.644168
0.665256
0.739226
0.837853
0.946538
1.054898
1.148334
1.207705
1.229767
1.220358
1.162609
1.066902
0.957244
0.844991
0.746364
0.674664
0.644168
0.644168
0.683424
0.767776
0.872892
0.98255
1.086692
1.171369
1.217114
1.229767
1.208679
1.132437
1.029268
0.918312
0.809628
0.718463
0.662336
0.643519
0.65455
0.712947
0.804761
0.912148
1.022131
1.119784
1.192457
1.225549
1.226847
1.186942
1.099345
0.990012
0.878083
0.775887
0.693806
0.651305
0.643843
0.668176
0.742795
0.844018
0.952702
1.061062
1.152876
1.210625
1.232038
1.222629
1.161312
1.064631
0.953027
0.842071
0.745066
0.675313
0.645141
0.646763
0.686668
0.77102
0.87711
0.986443
1.088963
1.172342
1.21679
1.228145
1.204461
1.127246
1.023428
0.912148
0.804437
0.714245
0.658767
0.641897
0.652927
0.712947
0.806059
0.913446
1.023428
1.120433
1.191808
1.2249
1.225874
1.184022
1.094803
0.98547
0.872892
0.768749
0.686993
0.64579
0.638004
0.663309
0.738253
0.837529
0.94524
1.053276
1.145415
1.202839
1.224576
1.217438
1.160663
1.064307
0.953351
0.841098
0.742795
0.673691
0.644168
0.645465
0.687317
0.772643
0.879056
0.989687
1.092208
1.175587
1.219061
1.228794
1.202839
1.124651
1.019535
0.907931
0.79957
0.709054
0.654874
0.637355
0.650981
0.711974
0.804761
0.910202
1.018237
1.114594
1.1824
1.212572
1.212247
1.1678
1.082799
0.978332
0.867377
0.767127
0.690561
0.651305
0.642221
0.66558
0.741497
0.84272
0.951404
1.057169
1.14801
1.20219
1.221007
1.209652
1.146063
1.049383
0.938427
0.827147
0.731115
0.662985
0.634759
0.63703
0.681477
0.768101
0.87419
0.984496
1.086044
1.167151
1.209652
1.218412
1.192457
1.112647
1.007856
0.898198
0.792109
0.702565
0.65163
0.636057
0.649359
0.711974
0.806708
0.913446
1.022131
1.118162
1.186617
1.216465
1.214843
1.168449
1.077284
0.968924
0.855048
0.751879
0.673042
0.632488
0.627622
0.656496
0.733062
0.834285
0.942645
1.050681
1.140873
1.195053
1.214194
1.20219
1.136979
1.038677
0.927397
0.815143
0.719111
0.652603
0.624702
0.628271
0.673367
0.760314
0.866403
0.977359
1.080528
1.162934
1.204137
1.211599
1.183049
1.101292
0.995527
0.884896
0.778482
0.689588
0.638328
0.624053
0.640599
0.707432
0.803788
0.910202
1.017588
1.112323
1.17948
1.209003
1.20511
1.155796
1.06528
0.954
0.842395
0.742146
0.664931
0.628271
0.624702
0.655523
0.735333
0.839151
0.947836
1.052952
1.14217
1.195053
1.212896
1.198621
1.130815
1.032512
0.922854
0.812548
0.718787
0.65455
0.630217
0.634759
0.6831
0.773616
0.879705
0.988714
1.09091
1.170396
1.21095
1.217438
1.184671
1.101616
0.995527
0.884896
0.780429
0.692832
0.642546
0.628919
0.644168
0.711649
0.80833
0.917339
1.027321
1.122704
1.189213
1.218087
1.215492
1.166827
1.075013
0.963733
0.85148
0.750581
0.67142
0.633461
0.627946
0.659416
0.739551
0.843044
0.953351
1.063658
1.15677
1.210625
1.226522
1.21095
1.141521
1.041921
0.929343
0.819361
0.725924
0.661687
0.63703
0.643843
0.692184
0.780105
0.886843
0.998447
1.100643
1.180129
1.217114
1.22198
1.190186
1.106807
0.999096
0.886518
0.781078
0.694455
0.64579
0.632488
0.650981
0.719436
0.815468
0.923828
1.033161
1.128869
1.19343
1.221007
1.216141
1.164556
1.071444
0.961137
0.848884
0.749284
0.674015
0.638652
0.636057
0.669473
0.750581
0.854724
0.963408
1.069173
1.15677
1.207057
1.222629
1.205759
1.133086
1.031863
0.920583
0.810601
0.716192
0.653252
0.631839
0.640599
0.693481
0.783998
0.890411
1.001691
1.101292
1.178831
1.21679
1.221656
1.188564
1.104212
0.997798
0.885545
0.779456
0.693806
0.646114
0.635084
0.65455
0.723005
0.818712
0.925774
1.035432
1.132762
1.196026
1.219709
1.210301
1.154499
1.059765
0.949458
0.837529
0.738902
0.664282
0.630542
0.628919
0.663309
0.74539
0.849208
0.958542
1.063333
1.15093
1.201866
1.21679
1.197648
1.124327
1.023753
0.912797
0.802166
0.707107
0.646114
0.622755
0.629893
0.682126
0.773616
0.881327
0.992283
1.091559
1.167151
1.204137
1.206732
1.17072
1.087666
0.980279
0.868999
0.763234
0.678233
0.633461
0.621782
0.641248
0.710676
0.808979
0.91669
1.02505
1.120109
1.182724
1.208354
1.20219
1.147686
1.0536
0.944591
0.833311
0.733711
0.658767
0.62308
0.619835
0.655847
0.739226
0.844342
0.954324
1.059116
1.146388
1.194728
1.209976
1.190511
1.117513
1.017264
0.906633
0.795353
0.702565
0.645141
0.626324
0.635408
0.689913
0.779131
0.884896
0.995852
1.093505
1.168774
1.204137
1.206408
1.168449
1.084746
0.977035
0.865106
0.761612
0.678882
0.636057
0.626648
0.647412
0.718463
0.816116
0.923179
1.031863
1.123353
1.183698
1.206732
1.198621
1.140224
1.045814
0.935183
0.823903
0.726898
0.655847
0.627297
0.63119
0.670122
0.752528
0.85667
0.966004
1.068524
1.152552
1.19927
1.212247
1.191808
1.11654
1.013695
0.902415
0.792757
0.700619
0.64287
0.621133
0.630217
0.688615
0.780429
0.887167
1.000069
1.099994
1.17364
1.20803
1.209328
1.1678
1.077933
0.970221
0.860888
0.759016
0.67434
0.631515
0.62308
0.644492
0.715543
0.813197
0.921557
1.03089
1.124327
1.184346
1.207057
1.197324
1.136979
1.040948
0.930965
0.820659
0.723005
0.651954
0.621458
0.623729
0.662985
0.748635
0.854724
0.964706
1.066578
1.150281
1.196999
1.209976
1.187591
1.110052
1.006882
0.8969
0.788215
0.696077
0.638004
0.61724
0.626
0.684397
0.778482
0.885869
0.997474
1.095777
1.1678
1.199919
1.201541
1.163258
1.077284
0.96795
0.857319
0.756097
0.672718
0.630866
0.624053
0.647088
0.721382
0.821956
0.930965
1.038028
1.130815
1.187915
1.21095
1.200568
1.138602
1.041921
0.931614
0.818063
0.71976
0.649683
0.619511
0.621133
0.663309
0.748959
0.855373
0.968599
1.072742
1.155472
1.198946
1.209003
1.184995
1.105834
0.998771
0.886194
0.777834
0.687317
0.633461
0.614644
0.627622
0.689264
0.780105
0.88814
1.000069
1.096101
1.165529
1.197972
1.200568
1.158067
1.070471
0.961137
0.849208
0.745066
0.662011
0.619511
0.610751
0.636381
0.714569
0.814819
0.923503
1.031215
1.124327
1.181102
1.203163
1.195377
1.134059
1.038028
0.92545
0.81125
0.713921
0.644492
0.616267
0.619186
0.660714
0.745066
0.85148
0.961786
1.065929
1.148334
1.189862
1.200568
1.176236
1.097723
0.996176
0.885869
0.777834
0.68829
0.636381
0.619186
0.63119
0.692508
0.786593
0.89398
1.00526
1.104212
1.174613
1.199919
1.196999
1.155148
1.070146
0.966328
0.858617
0.761936
0.681477
0.640923
0.634435
0.657794
0.729818
0.826174
0.932912
1.038352
1.127571
1.184346
1.204461
1.192457
1.127571
1.030241
0.921232
0.811574
0.714245
0.650007
0.62308
0.626324
0.670447
0.75707
0.863159
0.975412
1.078582
1.160014
1.200892
1.210301
1.183373
1.103563
1.000394
0.890736
0.783673
0.693806
0.640599
0.623404
0.638652
0.705161
0.799246
0.905335
1.016291
1.113945
1.184346
1.215492
1.216465
1.169747
1.076959
0.96795
0.855048
0.752852
0.674015
0.633786
0.627946
0.655847
0.733711
0.83396
0.941347
1.044516
1.133086
1.186293
1.206083
1.19343
1.1253
1.024726
0.914419
0.804761
0.711001
0.644817
0.619186
0.624377
0.67142
0.761612
0.873865
0.99131
1.097723
1.181102
1.221656
1.230416
1.197972
1.108754
0.996176
0.881976
0.773291
0.682126
0.626648
0.608156
0.625026
0.696401
0.795677
0.903389
1.013371
1.108105
1.17072
1.199595
1.202515
1.157094
1.069498
0.964057
0.853426
0.74831
0.663958
0.624053
0.619835
0.653252
0.735657
0.8398
0.945889
1.049707
1.136979
1.187915
1.204461
1.187591
1.116865
1.016615
0.904362
0.792433
0.698348
0.638652
0.618213
0.628595
0.679855
0.77102
0.877758
0.986443
1.084746
1.164232
1.206732
1.212896
1.181102
1.099021
0.991634
0.879705
0.770372
0.678557
0.626648
0.612373
0.628595
0.691535
0.786269
0.896575
1.004611
1.099021
1.166503
1.196026
1.195377
1.148334
1.057494
0.948485
0.837853
0.739875
0.664931
0.629568
0.62308
0.652279
0.727871
0.828445
0.93421
1.035432
1.1253
1.181426
1.204137
1.190511
1.121407
1.021482
0.910202
0.799246
0.700943
0.635732
0.610102
0.613671
0.660714
0.749932
0.856995
0.970546
1.072093
1.148334
1.18824
1.195053
1.164556
1.080204
0.975412
0.86543
0.761288
0.676935
0.63119
0.619835
0.638328
0.713272
0.816116
0.925774
1.036081
1.130491
1.191484
1.207381
1.19343
1.138277
1.040623
0.923503
0.809303
0.714569
0.643194
0.613671
0.619186
0.656496
0.740199
0.844991
0.95692
1.06236
1.149632
1.198621
1.21095
1.190186
1.116216
1.017264
0.904362
0.79438
0.701592
0.64287
0.621782
0.628919
0.681153
0.771345
0.875812
0.986119
1.087666
1.168125
1.209976
1.217114
1.184346
1.098372
0.989039
0.87419
0.764532
0.676611
0.631839
0.624377
0.645465
0.715543
0.816765
0.930316
1.040299
1.130491
1.188888
1.211923
1.201217
1.144766
1.053925
0.948485
0.840124
0.742146
0.66558
0.630542
0.620809
0.650007
0.733386
0.840124
0.951729
1.057494
1.145739
1.196675
1.214843
1.198946
1.12822
1.029917
0.918961
0.811574
0.714569
0.649359
0.625675
0.627946
0.677584
0.766803
0.872892
0.984821
1.08799
1.169747
1.212572
1.222629
1.195053
1.115567
1.010127
0.892682
0.778807
0.684722
0.629568
0.610751
0.626973
0.695103
0.793731
0.904037
1.014669
1.1107
1.17656
1.203812
1.19927
1.14801
1.055871
0.945889
0.835582
0.739226
0.666229
0.63119
0.626648
0.660065
0.74247
0.847262
0.957244
1.064307
1.150281
1.199595
1.213545
1.192782
1.11946
1.01986
0.911824
0.806059
0.716192
0.659416
0.633786
0.634759
0.686019
0.775238
0.88522
1.000394
1.105185
1.186942
1.225549
1.228794
1.191159
1.098372
0.981901
0.864457
0.761288
0.68018
0.634759
0.62016
0.638977
0.708405
0.807357
0.915393
1.027646
1.126922
1.192133
1.219061
1.212247
1.15093
1.051329
0.93421
0.818387
0.720734
0.650981
0.624053
0.632488
0.674664
0.762261
0.867377
0.976386
1.080853
1.166178
1.207705
1.213545
1.182075
1.101292
0.999745
0.892358
0.787566
0.698997
0.645465
0.626
0.635084
0.692184
0.783349
0.890411
1.007207
1.1107
1.181751
1.209328
1.207381
1.16488
1.073715
0.965031
0.85148
0.747986
0.667202
0.627622
0.618538
0.638977
0.711325
0.814819
0.926099
1.036406
1.131788
1.191808
1.213221
1.204786
1.147361
1.054574
0.943943
0.829743
0.731764
0.659092
0.628271
0.628271
0.670122
0.758368
0.869323
0.98255
1.08799
1.170396
1.215816
1.227496
1.20511
1.125624
1.015642
0.900144
0.788215
0.700619
0.646114
0.630866
0.649683
0.715218
0.807357
0.913122
1.025699
1.1253
1.196026
1.229442
1.22782
1.181426
1.096425
0.990985
0.873541
0.760314
0.673691
0.627622
0.618862
0.643843
0.725276
0.829743
0.94232
1.054574
1.148659
1.205434
1.231065
1.231065
1.177858
1.082475
0.965031
0.843369
0.736955
0.659416
0.622106
0.616915
0.659092
0.752528
0.866403
0.981252
1.088315
1.176236
1.223278
1.233336
1.207381
1.127895
1.022455
0.910202
0.801193
0.712298
0.659092
0.640599
0.653576
0.714569
0.810601
0.920259
1.032512
1.130491
1.198621
1.228145
1.231389
1.19635
1.115891
1.009802
0.895927
0.78562
0.694455
0.646763
0.638004
0.66558
0.736306
0.830067
0.938752
1.052303
1.149957
1.213545
1.240149
1.233984
1.169747
1.066578
0.950756
0.838827
0.746688
0.685695
0.662336
0.665905
0.705485
0.784647
0.886194
0.995852
1.097723
1.17948
1.217763
1.226522
1.202839
1.121407
1.018886
0.905011
0.798273
0.711001
0.659416
0.646439
0.662336
0.726898
0.822605
0.928045
1.03381
1.126273
1.195701
1.225549
1.223603
1.179804
1.08799
0.976061
0.864457
0.764856
0.687966
0.652927
0.652927
0.683424
0.760639
0.850831
0.947187
1.046463
1.14217
1.206408
1.236255
1.228794
1.162285
1.060413
0.952702
0.845315
0.747013
0.676611
0.645141
0.643519
0.686668
0.772967
0.881327
0.992932
1.094479
1.175911
1.221332
1.236255
1.211274
1.124975
1.017588
0.914095
0.81709
0.736306
0.681802
0.651954
0.646763
0.694455
0.788215
0.901442
1.014344
1.114269
1.187266
1.221656
1.223927
1.180453
1.093181
0.986767
0.876136
0.778158
0.699646
0.661363
0.659092
0.689588
0.767452
0.864781
0.968599
1.069822
1.155796
1.202515
1.215167
1.201866
1.137628
1.039974
0.932263
0.829418
0.736955
0.672393
0.646114
0.64871
0.693481
0.780105
0.88814
0.999745
1.102914
1.188888
1.233011
1.235931
1.205434
1.127895
1.026673
0.919935
0.810277
0.712623
0.657145
0.639301
0.652279
0.720085
0.819036
0.932263
1.049707
1.154174
1.220358
1.235931
1.226847
1.183049
1.093505
0.977359
0.856346
0.751555
0.675962
0.648061
0.661687
0.710676
0.802815
0.902415
0.994229
1.091559
1.17656
1.227171
1.23366
1.208679
1.136979
1.04257
0.94524
0.849533
0.766478
0.698023
0.650332
0.637355
0.683424
0.779131
0.889114
0.998123
1.100643
1.186293
1.234633
1.249882
1.222629
1.143468
1.035432
0.912797
0.79438
0.707756
0.662336
0.647412
0.663309
0.731764
0.831689
0.940049
1.050681
1.148983
1.218087
1.246313
1.242095
1.190186
1.091559
0.973141
0.856995
0.764207
0.696726
0.663958
0.661687
0.69413
0.773616
0.87419
0.984821
1.097723
1.196026
1.252477
1.269347
1.247935
1.166178
1.054249
0.936805
0.826498
0.738577
0.684073
0.66558
0.672069
0.721382
0.800544
0.885869
0.990661
1.095777
1.183373
1.231389
1.231713
1.197972
1.118811
1.015642
0.908579
0.811574
0.732089
0.686668
0.668825
0.67726
0.740199
0.835258
0.94232
1.058791
1.156445
1.217114
1.238851
1.233984
1.183373
1.092532
0.980928
0.86543
0.767127
0.689913
0.652279
0.649683
0.685695
0.770047
0.880029
0.994229
1.103563
1.191808
1.234309
1.238851
1.218412
1.147686
1.049707
0.941996
0.831689
0.735333
0.671744
0.646763
0.65974
0.719436
0.813521
0.925774
1.039001
1.135357
1.205759
1.232687
1.225225
1.191484
1.109727
1.022455
0.936805
0.837529
0.740524
0.685046
0.660389
0.674015
0.738253
0.826823
0.928694
1.041596
1.137953
1.19927
1.222629
1.218087
1.162285
1.066578
0.960813
0.855373
0.759665
0.685695
0.651954
0.650332
0.686344
0.770372
0.875812
0.986443
1.092532
1.179804
1.229442
1.243069
1.223603
1.149308
1.045165
0.929343
0.815143
0.725924
0.673367
0.664607
0.685371
0.75415
0.851804
0.954
1.055223
1.141197
1.198297
1.2249
1.224576
1.189213
1.104861
0.999745
0.88814
0.78562
0.697699
0.649683
0.637679
0.657145
0.735982
0.8398
0.950431
1.066902
1.174289
1.257668
1.303413
1.306333
1.237553
1.108754
0.968924
0.852777
0.763234
0.700294
0.682775
0.694779
0.723978
0.795028
0.888465
0.990012
1.08215
1.162934
1.21387
1.235607
1.226198
1.154499
1.051654
0.941996
0.837205
0.741497
0.674015
0.650981
0.662011
0.719111
0.811574
0.921232
1.044192
1.155148
1.235607
1.265454
1.254748
1.208679
1.123353
1.015966
0.902091
0.796651
0.715543
0.677909
0.664282
0.675962
0.744417
0.848235
0.968275
1.084746
1.181426
1.239175
1.258641
1.250206
1.189862
1.092857
0.984496
0.874514
0.777185
0.706134
0.67726
0.676935
0.717165
0.802166
0.908255
1.026024
1.14217
1.234309
1.278107
1.275187
1.242744
1.158067
1.050356
0.934534
0.819361
0.726249
0.671096
0.654225
0.674664
0.747337
0.853426
0.968599
1.076311
1.166503
1.23074
1.253775
1.249882
1.208679
1.113945
1.001042
0.896575
0.809303
0.737928
0.689588
0.667202
0.683424
0.756745
0.858941
0.966653
1.07112
1.161636
1.226198
1.259615
1.261886
1.201866
1.10259
0.988065
0.867052
0.758368
0.685046
0.659092
0.665905
0.713272
0.799895
0.903389
1.010127
1.112647
1.201541
1.257668
1.278432
1.256695
1.174938
1.069173
0.956271
0.845315
0.752203
0.673691
0.643194
0.662336
0.733062
0.830067
0.932912
1.038352
1.129193
1.200892
1.245664
1.258966
1.213545
1.116865
1.010775
0.915393
0.818387
0.735009
0.682775
0.662011
0.688615
0.778158
0.885545
0.996176
1.100967
1.187591
1.244691
1.257019
1.240149
1.177209
1.078257
0.965679
0.854075
0.757394
0.68829
0.663309
0.669473
0.714245
0.798922
0.901442
1.006233
1.09967
1.176884
1.228469
1.249557
1.228469
1.149308
1.050681
0.946214
0.843369
0.750581
0.689264
0.666229
0.679531
0.74539
0.844018
0.964706
1.085719
1.177858
1.223927
1.234958
1.231713
1.189213
1.105185
1.00234
0.890087
0.79146
0.716516
0.681153
0.675962
0.698023
0.767776
0.866079
0.974764
1.083124
1.179804
1.24534
1.278756
1.281676
1.22782
1.136006
1.018237
0.884247
0.766154
0.679855
0.647088
0.654225
0.701592
0.78854
0.89106
1.001691
1.111998
1.202839
1.25053
1.264157
1.23366
1.144117
1.036081
0.933885
0.827796
0.741173
0.695103
0.681153
0.692832
0.756745
0.850831
0.958218
1.069498
1.168774
1.240149
1.274538
1.275836
1.230416
1.140224
1.028944
0.915068
0.812223
0.73144
0.689913
0.684073
0.717165
0.801841
0.907282
1.015317
1.118487
1.203812
1.256046
1.273241
1.260588
1.203812
1.117189
1.015966
0.899171
0.788864
0.714894
0.693157
0.699321
0.74247
0.827796
0.93129
1.039001
1.135682
1.211599
1.257668
1.273241
1.251504
1.172991
1.064956
0.954
0.850182
0.768101
0.727547
0.719436
0.730467
0.787566
0.874839
0.972492
1.075662
1.170396
1.240149
1.275836
1.278432
1.237229
1.152228
1.033161
0.912148
0.811899
0.732089
0.690886
0.685046
0.721707
0.811574
0.919286
1.022455
1.120758
1.207705
1.263183
1.282649
1.269023
1.200568
1.101616
0.998447
0.898847
0.814494
0.752203
0.712298
0.704836
0.747013
0.83396
0.943618
1.057818
1.161961
1.241771
1.283622
1.291084
1.262534
1.180129
1.070146
0.956271
0.850506
0.762585
0.714245
0.698023
0.716516
0.787566
0.886194
0.995203
1.104536
1.201866
1.274863
1.304386
1.29952
1.246313
1.152876
1.038028
0.924477
0.823254
0.743119
0.710352
0.708405
0.733711
0.808006
0.906308
1.01694
1.127571
1.220034
1.275836
1.294329
1.277134
1.206732
1.110376
1.004611
0.892682
0.791135
0.7256
0.703214
0.707107
0.749284
0.835907
0.946538
1.060089
1.160663
1.241122
1.285893
1.300168
1.275836
1.191484
1.08215
0.971195
0.860239
0.765181
0.71684
0.707107
0.718138
0.77394
0.860239
0.958542
1.077284
1.190511
1.276485
1.31347
1.312821
1.259939
1.152228
1.025375
0.902415
0.79438
0.721707
0.693157
0.691859
0.7256
0.808979
0.915068
1.027321
1.133086
1.218736
1.269347
1.29952
1.301466
1.245664
1.151579
1.03089
0.897549
0.788215
0.715867
0.684397
0.685046
0.735982
0.826174
0.933561
1.044516
1.147037
1.229442
1.27097
1.281676
1.252801
1.172018
1.064956
0.948809
0.840449
0.750906
0.705485
0.695428
0.711001
0.786918
0.892033
1.007207
1.117189
1.20803
1.269347
1.292707
1.285245
1.233011
1.142495
1.037379
0.930316
0.833636
0.75707
0.717814
0.715867
0.744417
0.820659
0.928694
1.050032
1.162285
1.240473
1.282649
1.294653
1.276161
1.199919
1.091559
0.97963
0.887491
0.816116
0.762585
0.723329
0.703539
0.740848
0.837205
0.95984
1.080853
1.178507
1.25053
1.285569
1.292707
1.258966
1.171369
1.063333
0.954649
0.853751
0.770696
0.721707
0.703539
0.719436
0.79438
0.899495
1.009802
1.114918
1.205759
1.269672
1.295626
1.294653
1.241446
1.153525
1.051329
0.940374
0.826498
0.732089
0.700294
0.711001
0.749284
0.826174
0.921232
1.03089
1.141521
1.235931
1.291084
1.309253
1.288489
1.204137
1.094803
0.985145
0.879056
0.784971
0.721382
0.698348
0.70873
0.765505
0.856022
0.963408
1.074688
1.17948
1.260912
1.302764
1.307306
1.265779
1.172991
1.062684
0.952378
0.846289
0.762261
0.718787
0.712947
0.735657
0.809628
0.912473
1.017264
1.118487
1.209328
1.270321
1.295626
1.289462
1.236904
1.149632
1.042894
0.929343
0.817414
0.728844
0.695752
0.714245
0.777834
0.876461
0.962111
1.049707
1.14509
1.234309
1.28492
1.290111
1.264157
1.189862
1.085395
0.967302
0.854075
0.767776
0.716192
0.698672
0.712623
0.776211
0.875163
0.986767
1.097399
1.192782
1.261237
1.291409
1.290436
1.251504
1.165529
1.054898
0.941996
0.836231
0.748959
0.703539
0.69413
0.717814
0.793406
0.898847
1.014669
1.126922
1.217114
1.265454
1.271943
1.254748
1.19927
1.1107
1.005585
0.895278
0.803464
0.739875
0.715218
0.72268
0.761936
0.837853
0.935832
1.038028
1.140873
1.226522
1.276485
1.29368
1.273565
1.197648
1.088315
0.973141
0.864781
0.77978
0.726249
0.704836
0.708405
0.762585
0.857644
0.969248
1.085395
1.188888
1.273565
1.317688
1.314443
1.256695
1.159041
1.051978
0.94524
0.842071
0.753177
0.706134
0.69413
0.720085
0.801193
0.90274
1.008829
1.117189
1.212247
1.275512
1.298222
1.283298
1.209328
1.112323
1.012073
0.906633
0.80833
0.733062
0.707432
0.71976
0.767452
0.850506
0.954324
1.060413
1.151254
1.228794
1.275512
1.288489
1.264157
1.183698
1.080528
0.971844
0.862835
0.772318
0.717489
0.702565
0.71976
0.78562
0.88522
0.992607
1.100319
1.203812
1.27097
1.285569
1.282
1.241446
1.149308
1.037703
0.925774
0.827147
0.746039
0.704188
0.698672
0.728844
0.808979
0.91377
1.020184
1.11362
1.197324
1.254424
1.277134
1.26805
1.209003
1.118487
1.012073
0.90566
0.813521
0.744093
0.713596
0.709703
0.753177
0.839476
0.949458
1.05944
1.158392
1.241122
1.286867
1.301791
1.283298
1.200892
1.092208
0.983199
0.877434
0.790486
0.734035
0.712298
0.714569
0.778482
0.873216
0.969248
1.072417
1.17072
1.24534
1.281351
1.283298
1.241446
1.153201
1.046138
0.931614
0.827796
0.747337
0.704836
0.696726
0.721707
0.797299
0.89982
1.012073
1.121082
1.211599
1.267076
1.292382
1.288813
1.23074
1.134384
1.01694
0.899171
0.80249
0.732738
0.700294
0.705161
0.747661
0.828769
0.927721
1.03673
1.140548
1.224251
1.270645
1.28492
1.268374
1.199919
1.106158
1.001042
0.887491
0.776211
0.701268
0.678233
0.69997
0.770047
0.866403
0.971844
1.078257
1.173316
1.244366
1.278432
1.281676
1.237229
1.138926
1.019211
0.906633
0.811899
0.741822
0.712623
0.705485
0.729818
0.802166
0.89982
1.009478
1.117838
1.207057
1.258966
1.284271
1.283947
1.22782
1.126922
0.996825
0.87127
0.777509
0.720409
0.698997
0.703539
0.75123
0.836556
0.939725
1.048085
1.151579
1.237878
1.281351
1.287191
1.253126
1.163583
1.051329
0.943618
0.846613
0.761612
0.707756
0.687317
0.695428
0.760314
0.861537
0.975412
1.08799
1.186293
1.255072
1.286867
1.294329
1.255072
1.165205
1.047112
0.918637
0.804112
0.721707
0.690561
0.691535
0.71976
0.78562
0.879381
0.993905
1.109078
1.203812
1.255397
1.27097
1.258966
1.195053
1.099994
0.995852
0.887167
0.795677
0.733062
0.706783
0.714894
0.76583
0.851155
0.945565
1.045165
1.142495
1.226522
1.27389
1.28492
1.254099
1.168125
1.057818
0.944916
0.838502
0.750906
0.704836
0.69413
0.711325
0.775563
0.872892
0.98839
1.102914
1.198297
1.258317
1.289787
1.295626
1.253126
1.158067
1.042245
0.921232
0.812548
0.728844
0.687317
0.683424
0.717814
0.800544
0.906308
1.018237
1.128544
1.220358
1.273565
1.288813
1.270645
1.197324
1.097723
0.988714
0.879705
0.786918
0.726249
0.705161
0.712298
0.76291
0.853102
0.957893
1.0682
1.169098
1.245015
1.283947
1.289787
1.258641
1.175911
1.0682
0.954973
0.843693
0.750906
0.711649
0.707107
0.723329
0.783998
0.875812
0.983199
1.097074
1.197324
1.260588
1.280054
1.277783
1.229442
1.137304
1.024402
0.91377
0.818387
0.74539
0.712947
0.712298
0.746039
0.820659
0.914744
1.020508
1.128869
1.217763
1.269023
1.282649
1.269347
1.21095
1.118487
1.00526
0.887167
0.783673
0.718138
0.696077
0.702241
0.751879
0.840124
0.94816
1.057494
1.155148
1.23074
1.267401
1.272267
1.23658
1.151903
1.052627
0.949458
0.849533
0.764207
0.715218
0.699646
0.714894
0.7827
0.880029
0.990336
1.101616
1.196026
1.260263
1.28784
1.281351
1.226198
1.131788
1.020184
0.906633
0.807681
0.733062
0.698023
0.699646
0.744742
0.837205
0.947187
1.055223
1.147361
1.212247
1.261237
1.285245
1.26805
1.190186
1.083124
0.968599
0.858941
0.764856
0.704512
0.681153
0.689264
0.744417
0.834933
0.941671
1.052303
1.150281
1.231065
1.269996
1.274214
1.241122
1.152876
1.038028
0.925125
0.82001
0.733711
0.687317
0.676611
0.69705
0.770696
0.872568
0.983848
1.094803
1.188564
1.241771
1.257019
1.251828
1.198621
1.106483
0.997474
0.886518
0.784647
0.702565
0.664282
0.664931
0.698348
0.781727
0.89106
1.008504
1.118162
1.201866
1.243069
1.258966
1.246313
1.181102
1.084421
0.970546
0.853102
0.75415
0.691859
0.6685
0.677584
0.738577
0.8398
0.957244
1.065929
1.154823
1.218736
1.251179
1.25053
1.209328
1.124002
1.026348
0.919286
0.813521
0.725276
0.68018
0.669149
0.689913
0.76291
0.861537
0.974115
1.090261
1.189862
1.243393
1.247935
1.229767
1.172991
1.086368
0.990012
0.885869
0.790811
0.723653
0.695752
0.692832
0.718463
0.794055
0.905011
1.020184
1.127571
1.215816
1.264805
1.270645
1.243393
1.172667
1.071444
0.961462
0.848884
0.752528
0.686019
0.666878
0.682126
0.741173
0.833311
0.942645
1.0536
1.151254
1.222305
1.257343
1.260263
1.221332
1.133086
1.023104
0.908255
0.803139
0.735009
0.716516
0.723978
0.733711
0.777185
0.858617
0.966004
1.086044
1.18532
1.241446
1.257343
1.244366
1.183373
1.089612
0.98255
0.871594
0.774914
0.704188
0.673691
0.675313
0.715218
0.800219
0.905984
1.014344
1.118487
1.20219
1.249557
1.264805
1.246313
1.169747
1.058142
0.941671
0.832014
0.74247
0.688615
0.669798
0.680504
0.740524
0.835258
0.94524
1.054898
1.149632
1.216465
1.247286
1.248584
1.204137
1.111025
1.001691
0.891709
0.789189
0.711325
0.676935
0.674664
0.69997
0.775238
0.874514
0.981901
1.09091
1.182075
1.239824
1.259615
1.237229
1.164556
1.06528
0.955622
0.851804
0.766154
0.707432
0.683748
0.679206
0.697374
0.763559
0.874514
0.996176
1.099021
1.174289
1.216141
1.232687
1.211923
1.133411
1.025375
0.911175
0.803139
0.713272
0.660389
0.644168
0.657145
0.717814
0.807032
0.912148
1.02505
1.129517
1.204461
1.231713
1.223278
1.181426
1.09967
0.994229
0.881976
0.776536
0.693481
0.652279
0.646763
0.671744
0.746039
0.844666
0.954324
1.064631
1.159365
1.21679
1.23658
1.223278
1.158716
1.058467
0.945889
0.838178
0.747337
0.680504
0.649683
0.646114
0.684722
0.766154
0.870621
0.981577
1.080204
1.159041
1.203488
1.215492
1.19343
1.115242
1.009478
0.898198
0.796651
0.713921
0.661363
0.640599
0.653576
0.724302
0.820334
0.926099
1.029917
1.121731
1.189213
1.224576
1.23366
1.197648
1.11362
1.0111
0.903064
0.800544
0.718138
0.669798
0.653576
0.679855
0.761288
0.861212
0.967626
1.074688
1.165529
1.222305
1.245988
1.236904
1.170071
1.070146
0.964057
0.863808
0.774589
0.710676
0.682451
0.686019
0.727222
0.809303
0.912797
1.020833
1.117838
1.197972
1.24242
1.25345
1.226847
1.145739
1.04257
0.936481
0.832662
0.741173
0.684722
0.671744
0.686344
0.750257
0.84272
0.947187
1.05944
1.160663
1.231389
1.263832
1.263832
1.219061
1.125624
1.013046
0.903064
0.803139
0.722356
0.682775
0.68018
0.710352
0.789189
0.887491
0.99131
1.095777
1.185644
1.244042
1.266752
1.258966
1.19927
1.105509
0.993905
0.879381
0.7827
0.720409
0.693157
0.694455
0.733711
0.816116
0.925125
1.039325
1.140873
1.217438
1.256046
1.265454
1.237878
1.161961
1.063333
0.955946
0.84564
0.755123
0.704512
0.682451
0.689913
0.752852
0.84856
0.95692
1.066253
1.162609
1.232362
1.263832
1.262534
1.213545
1.12238
1.011424
0.900793
0.802815
0.727222
0.689588
0.68018
0.707756
0.787242
0.889762
0.997798
1.107456
1.199595
1.25345
1.269672
1.252801
1.186942
1.088639
0.974439
0.863159
0.766803
0.703214
0.678233
0.684397
0.734684
0.822281
0.928694
1.041596
1.143468
1.217438
1.25345
1.263832
1.238851
1.159041
1.047112
0.929668
0.819685
0.732089
0.692508
0.686993
0.703214
0.76583
0.856346
0.962111
1.072417
1.169423
1.235282
1.261237
1.255721
1.205434
1.112647
1.003314
0.893656
0.795677
0.718463
0.679855
0.670122
0.696401
0.772643
0.873865
0.981252
1.089612
1.183049
1.236904
1.253775
1.238526
1.169098
1.068524
0.956595
0.844342
0.749284
0.685695
0.660389
0.661363
0.705485
0.790162
0.897873
1.011749
1.118487
1.204786
1.248908
1.257668
1.219385
1.129193
1.023104
0.914744
0.811574
0.725924
0.68018
0.667851
0.679206
0.742795
0.834933
0.939725
1.049058
1.14509
1.207381
1.233011
1.229118
1.176236
1.086044
0.98255
0.875487
0.773616
0.696401
0.667202
0.671744
0.710676
0.789513
0.879056
0.978657
1.086368
1.171369
1.215167
1.226198
1.207705
1.13925
1.039974
0.93129
0.824876
0.735009
0.674989
0.650981
0.658118
0.710027
0.801193
0.914744
1.031539
1.134384
1.209328
1.242095
1.243069
1.209976
1.125624
1.020833
0.910202
0.803139
0.711649
0.664282
0.653252
0.673042
0.741822
0.83688
0.943943
1.0536
1.14509
1.209652
1.2395
1.237878
1.189213
1.103887
0.990336
0.867701
0.762261
0.687966
0.657145
0.653901
0.686344
0.766478
0.870621
0.982225
1.087341
1.172018
1.22198
1.2395
1.225874
1.152552
1.050032
0.942645
0.832987
0.737604
0.676611
0.654225
0.663309
0.715543
0.803788
0.906957
1.017913
1.117513
1.193755
1.232362
1.24242
1.211599
1.128544
1.020184
0.907931
0.80249
0.716192
0.669798
0.653252
0.669798
0.738253
0.833311
0.939076
1.048085
1.143144
1.206408
1.230416
1.221656
1.165205
1.074688
0.967626
0.859266
0.76291
0.688939
0.656821
0.658118
0.696077
0.77686
0.879056
0.985794
1.08799
1.173316
1.219709
1.23366
1.214519
1.13925
1.036406
0.926099
0.818387
0.727547
0.667527
0.644817
0.647736
0.697699
0.787891
0.896575
1.010451
1.114594
1.195701
1.234958
1.237878
1.197324
1.10778
0.995527
0.881327
0.778158
0.691535
0.644492
0.633461
0.656821
0.733386
0.83396
0.943618
1.052627
1.144117
1.203163
1.229767
1.224251
1.165529
1.064631
0.94524
0.826498
0.725276
0.655523
0.630217
0.633137
0.675313
0.764207
0.871919
0.980603
1.082799
1.162934
1.205434
1.217438
1.194728
1.116216
1.011424
0.900469
0.789189
0.697699
0.642221
0.624702
0.637679
0.695428
0.788864
0.896251
1.009478
1.108105
1.1824
1.21679
1.217763
1.177209
1.090586
0.985145
0.877434
0.777834
0.694779
0.64871
0.63703
0.650981
0.713921
0.808655
0.922854
1.037379
1.132437
1.194079
1.220034
1.21679
1.165854
1.071444
0.957893
0.845315
0.745715
0.670771
0.639626
0.64579
0.689913
0.773616
0.874839
0.982874
1.084097
1.1678
1.211599
1.225549
1.202515
1.1253
1.022779
0.911824
0.803464
0.715543
0.661038
0.643194
0.655847
0.714569
0.809303
0.920259
1.031863
1.13114
1.203163
1.234633
1.230416
1.187915
1.104536
1.002016
0.891709
0.787242
0.70581
0.664931
0.655523
0.678233
0.751555
0.849857
0.957244
1.06528
1.156445
1.213545
1.236904
1.227171
1.166178
1.073715
0.968924
0.854724
0.755448
0.684397
0.652927
0.658767
0.701592
0.783998
0.884572
0.991634
1.095777
1.18532
1.233984
1.251179
1.236904
1.165205
1.05944
0.940374
0.827147
0.735657
0.680504
0.661687
0.667527
0.721707
0.810926
0.918961
1.02797
1.126598
1.202515
1.235282
1.236904
1.195053
1.104212
1.001042
0.897549
0.797948
0.711649
0.668176
0.660714
0.686993
0.761612
0.860888
0.969248
1.078257
1.171369
1.229767
1.251504
1.241122
1.178182
1.077933
0.965031
0.852777
0.75707
0.690237
0.662985
0.664931
0.706459
0.79146
0.896575
1.00818
1.1107
1.195053
1.2395
1.249557
1.224251
1.141197
1.034783
0.92545
0.821632
0.733062
0.678882
0.659092
0.670771
0.732089
0.822281
0.928694
1.039325
1.136655
1.20511
1.240149
1.246313
1.207705
1.11946
1.006882
0.89106
0.7827
0.70289
0.664607
0.656496
0.674989
0.745066
0.846289
0.959191
1.069173
1.167476
1.22782
1.247286
1.231713
1.163258
1.06236
0.956271
0.849533
0.751879
0.676286
0.643519
0.647736
0.696077
0.786269
0.898198
1.0111
1.108754
1.182724
1.223278
1.233336
1.209328
1.134708
1.036406
0.927397
0.818712
0.727547
0.673691
0.655523
0.668825
0.731764
0.82812
0.940698
1.054574
1.149957
1.209652
1.231065
1.226198
1.182075
1.09091
0.981901
0.865754
0.761288
0.683748
0.655198
0.662336
0.700943
0.781078
0.876461
0.969897
1.064307
1.151254
1.206408
1.2249
1.209652
1.145739
1.050356
0.941347
0.832987
0.738902
0.674015
0.646114
0.649683
0.695103
0.781078
0.887816
0.998447
1.101292
1.181751
1.223927
1.233984
1.20511
1.122704
1.015642
0.902091
0.794704
0.70581
0.65455
0.636057
0.648385
0.711649
0.804437
0.910526
1.022779
1.120433
1.191808
1.224576
1.222954
1.17364
1.081177
0.970546
0.862186
0.767776
0.695428
0.659416
0.655198
0.686019
0.766154
0.868026
0.977359
1.083448
1.172991
1.225549
1.243717
1.229767
1.15677
1.051005
0.933561
0.821632
0.729169
0.670447
0.657469
0.678882
0.735333
0.822605
0.92545
1.031539
1.125624
1.20219
1.24242
1.248259
1.215167
1.126598
1.025699
0.923503
0.822605
0.734035
0.67726
0.652927
0.661038
0.725276
0.823903
0.935507
1.047436
1.139575
1.202515
1.229118
1.219709
1.15677
1.051329
0.929992
0.812223
0.710027
0.632164
0.61432
0.640923
0.68829
0.775238
0.887167
0.997149
1.104861
1.197324
1.247611
1.260263
1.236255
1.15385
1.04549
0.920583
0.794704
0.701268
0.656821
0.65163
0.667527
0.731115
0.824876
0.934534
1.052303
1.157743
1.241446
1.283947
1.289138
1.255072
1.168125
1.058467
0.943943
0.83396
0.742146
0.689264
0.672069
0.685046
0.749932
0.846613
0.953675
1.060738
1.156445
1.223278
1.251179
1.24534
1.193755
1.102265
0.991958
0.879705
0.778482
0.702565
0.665905
0.654874
0.672393
0.738253
0.829418
0.929343
1.022131
1.103238
1.157743
1.188888
1.194404
1.13925
1.059116
0.963733
0.857644
0.758043
0.680504
0.647736
0.64579
0.685695
0.774914
0.898522
1.037054
1.15969
1.25345
1.295951
1.294653
1.25345
1.161961
1.047436
0.929019
0.820659
0.732413
0.681477
0.667527
0.68829
0.759341
0.857319
0.965679
1.078582
1.175587
1.2395
1.263183
1.254748
1.197648
1.099994
0.984172
0.867701
0.762585
0.682775
0.644168
0.640275
0.675638
0.759665
0.873541
0.993905
1.102914
1.192457
1.242744
1.255072
1.230416
1.14801
1.035432
0.914744
0.795028
0.697699
0.643843
0.638328
0.657469
0.722031
0.820983
0.926099
1.031539
1.129193
1.199595
1.22782
1.222954
1.172667
1.063333
0.943943
0.830391
0.716192
0.62308
0.587717
0.622431
0.68829
0.788864
0.901766
1.010775
1.112647
1.200892
1.258966
1.27908
1.26805
1.209003
1.110376
0.9965
0.881652
0.780429
0.704836
0.668825
0.664282
0.695428
0.77394
0.876136
0.984821
1.093181
1.184346
1.23366
1.247935
1.227496
1.151579
1.04841
0.935832
0.825201
0.732738
0.672393
0.649683
0.656172
0.707756
0.798273
0.907931
1.01986
1.119784
1.197648
1.234958
1.238202
1.201217
1.11362
1.002665
0.893331
0.789513
0.705161
0.65974
0.64871
0.668825
0.739226
0.835258
0.941023
1.047436
1.138602
1.198946
1.230091
1.229767
1.174938
1.079879
0.967302
0.855697
0.75999
0.689264
0.659092
0.658767
0.693806
0.772967
0.873216
0.978657
1.079231
1.166178
1.217114
1.23366
1.219709
1.150281
1.04549
0.927721
0.81125
0.712947
0.652927
0.636706
0.649683
0.704836
0.790811
0.892358
0.998771
1.101616
1.197324
1.260912
1.276485
1.238526
1.146063
1.032188
0.915393
0.805735
0.71684
0.667851
0.652603
0.667851
0.734684
0.829418
0.935832
1.045165
1.143144
1.214843
1.246313
1.241122
1.184671
1.093505
0.989363
0.879381
0.775563
0.698348
0.663634
0.659416
0.693806
0.775563
0.879381
0.985794
1.086368
1.17656
1.229767
1.247935
1.230091
1.155148
1.049383
0.936156
0.824876
0.731115
0.673367
0.653576
0.661687
0.718138
0.809303
0.915717
1.025699
1.123353
1.194728
1.225549
1.22198
1.17656
1.084097
0.970546
0.855697
0.75999
0.685695
0.649359
0.644817
0.668176
0.741822
0.840773
0.948485
1.055871
1.147037
1.206083
1.227171
1.215816
1.152228
1.052952
0.937129
0.820659
0.7256
0.660065
0.63119
0.636381
0.682126
0.765181
0.868674
0.975088
1.073391
1.153525
1.197324
1.20803
1.186942
1.121407
1.032188
0.927072
0.819036
0.723978
0.663309
0.63995
0.64579
0.700943
0.792109
0.898198
1.009478
1.110376
1.186942
1.225549
1.228469
1.185644
1.094803
0.983848
0.87127
0.766803
0.683748
0.642546
0.636381
0.661038
0.734035
0.832014
0.940049
1.047112
1.13633
1.192782
1.217114
1.205434
1.14217
1.049707
0.940049
0.828445
0.731764
0.665905
0.641248
0.646439
0.691859
0.778807
0.884247
0.992932
1.093181
1.176884
1.220358
1.227171
1.196999
1.11362
1.012073
0.907606
0.801193
0.713596
0.662011
0.65163
0.667851
0.730791
0.823254
0.926099
1.028944
1.118487
1.182075
1.206408
1.20511
1.17072
1.097074
1.007207
0.905335
0.804112
0.720409
0.675313
0.664282
0.686668
0.761612
0.861861
0.970546
1.077933
1.168774
1.225225
1.24534
1.233336
1.170071
1.073715
0.962111
0.848235
0.748635
0.676286
0.645465
0.647088
0.689264
0.777834
0.890411
1.005585
1.109403
1.190186
1.232038
1.243717
1.221656
1.144441
1.039001
0.92545
0.813521
0.721382
0.662985
0.637679
0.642546
0.695103
0.783998
0.898198
1.018562
1.1253
1.210301
1.257992
1.270321
1.22782
1.133086
1.017264
0.900144
0.79438
0.711325
0.668825
0.659092
0.684722
0.761936
0.863159
0.972817
1.081826
1.176236
1.231065
1.248259
1.232362
1.163583
1.062036
0.952702
0.851155
0.760314
0.693481
0.664607
0.665256
0.710676
0.798597
0.905335
1.014993
1.11654
1.196999
1.235607
1.240473
1.208679
1.128544
1.025699
0.915717
0.813845
0.726249
0.676935
0.666553
0.684073
0.747986
0.843369
0.949782
1.058467
1.151254
1.21679
1.243717
1.239824
1.190186
1.098048
0.990985
0.883923
0.784647
0.706459
0.673367
0.669149
0.694455
0.772318
0.872892
0.980928
1.08799
1.177858
1.231065
1.249557
1.234633
1.167151
1.065929
0.953351
0.841422
0.745066
0.68018
0.655847
0.661038
0.707756
0.796002
0.903389
1.015317
1.118162
1.199595
1.239824
1.244366
1.211274
1.125624
1.015642
0.901118
0.793082
0.709378
0.666229
0.656496
0.674989
0.742795
0.838502
0.94524
1.052627
1.146063
1.211923
1.241771
1.2395
1.193755
1.100319
0.989687
0.875487
0.771994
0.690886
0.649034
0.640275
0.66558
0.743119
0.845315
0.960813
1.075337
1.17364
1.233336
1.25053
1.232038
1.159365
1.053276
0.936156
0.820659
0.724951
0.661038
0.646439
0.665905
0.717814
0.806059
0.910526
1.022779
1.123029
1.203488
1.247286
1.25345
1.221007
1.137628
1.028619
0.914419
0.806059
0.718463
0.669473
0.655198
0.671096
0.738902
0.833311
0.940374
1.049058
1.141197
1.203812
1.227496
1.220358
1.172018
1.087341
0.985145
0.87711
0.779131
0.704188
0.674015
0.67142
0.70289
0.780105
0.879705
0.984821
1.088315
1.173965
1.224576
1.247935
1.243069
1.17948
1.078906
0.964382
0.850182
0.753501
0.689588
0.66558
0.672393
0.725276
0.814819
0.92253
1.032188
1.132113
1.209652
1.247286
1.251828
1.216465
1.13114
1.022455
0.908904
0.803139
0.715867
0.669473
0.659416
0.679531
0.754474
0.854399
0.96276
1.072417
1.167151
1.229442
1.254099
1.246962
1.198946
1.112323
1.003962
0.89106
0.790162
0.712298
0.676935
0.671744
0.703863
0.783998
0.88522
0.992607
1.096101
1.184995
1.240797
1.262534
1.248259
1.179155
1.078906
0.966977
0.855697
0.759341
0.696077
0.672393
0.677584
0.729493
0.818387
0.926099
1.038352
1.140224
1.218412
1.253775
1.257668
1.225225
1.139575
1.030241
0.919286
0.818712
0.734684
0.686993
0.674664
0.693481
0.763234
0.861537
