0.733711
0.880029
1.039001
1.189862
1.31639
1.403987
1.422479
1.387116
1.299844
1.155796
0.994554
0.841422
0.702565
0.597125
0.566304
0.591934
0.65455
0.774914
0.921232
1.076959
1.225549
1.346562
1.408853
1.40788
1.359215
1.245015
1.093505
0.943943
0.810601
0.688939
0.601992
0.584797
0.613022
0.688615
0.820334
0.97379
1.121082
1.261561
1.376086
1.422804
1.410475
1.350455
1.226847
1.071769
0.911499
0.761612
0.639626
0.579281
0.58577
0.638004
0.741497
0.887816
1.051654
1.207057
1.332287
1.412746
1.435457
1.412422
1.333585
1.190511
1.020184
0.857644
0.71684
0.610427
0.568575
0.582526
0.647412
0.774914
0.935832
1.097074
1.241446
1.354997
1.415342
1.419235
1.380303
1.276485
1.126922
0.962435
0.810277
0.683748
0.600694
0.583175
0.609454
0.684073
0.818387
0.974115
1.123353
1.254424
1.352078
1.401067
1.407555
1.359539
1.23366
1.074364
0.911175
0.760963
0.63995
0.577659
0.579281
0.626324
0.732738
0.881652
1.043867
1.188564
1.308604
1.393605
1.414693
1.384521
1.307955
1.175587
1.016615
0.857968
0.717489
0.611725
0.573766
0.586419
0.63995
0.75707
0.908579
1.062684
1.207381
1.32807
1.385818
1.381925
1.343967
1.242095
1.097074
0.951729
0.824876
0.706134
0.621458
0.600694
0.624377
0.696077
0.830391
0.986443
1.141521
1.278432
1.379979
1.421182
1.410151
1.352078
1.226198
1.064956
0.904686
0.756745
0.643519
0.575064
0.571495
0.6114
0.710676
0.852453
1.014669
1.169098
1.305359
1.400742
1.425399
1.396849
1.315417
1.175262
1.011424
0.849208
0.705485
0.600694
0.564682
0.578308
0.629893
0.755448
0.924801
1.093181
1.235931
1.337478
1.394254
1.39912
1.355646
1.247611
1.092208
0.924477
0.771345
0.643843
0.56306
0.553327
0.587068
0.664931
0.798922
0.952053
1.100967
1.244691
1.358566
1.392307
1.36473
1.291084
1.152876
0.992607
0.835258
0.698672
0.596476
0.54035
0.552029
0.615293
0.723329
0.867701
1.027321
1.171694
1.28784
1.365704
1.383872
1.346562
1.251828
1.109727
0.950107
0.799246
0.669473
0.578633
0.541972
0.547812
0.597125
0.714245
0.861537
1.01986
1.188888
1.32807
1.40204
1.403987
1.354349
1.244042
1.091883
0.923828
0.765181
0.636057
0.548136
0.524452
0.5543
0.632813
0.768425
0.928694
1.083448
1.220034
1.323852
1.367001
1.355646
1.301142
1.180129
1.022455
0.857319
0.705161
0.589988
0.527048
0.524777
0.571171
0.679206
0.826823
0.983199
1.131464
1.249557
1.329367
1.358242
1.340074
1.264157
1.127246
0.971844
0.812548
0.674664
0.566629
0.525101
0.539376
0.596801
0.717489
0.866403
1.017264
1.157743
1.265779
1.329367
1.348509
1.335856
1.251828
1.105509
0.937778
0.777509
0.642221
0.551705
0.532888
0.557869
0.635408
0.773291
0.936481
1.097074
1.243393
1.351104
1.392632
1.378357
1.319634
1.193106
1.035108
0.870297
0.721707
0.605885
0.543269
0.536781
0.579281
0.686344
0.831689
0.992283
1.146712
1.276161
1.362459
1.381925
1.350455
1.26513
1.117189
0.945565
0.777509
0.643519
0.553002
0.524128
0.545865
0.609778
0.733386
0.898522
1.062684
1.208354
1.323852
1.385818
1.386467
1.34202
1.241771
1.090261
0.921557
0.76291
0.632488
0.541972
0.515368
0.542621
0.619835
0.755772
0.919935
1.083124
1.233984
1.347211
1.388414
1.372192
1.312172
1.187591
1.033161
0.87127
0.724302
0.606534
0.539052
0.530941
0.567926
0.662985
0.800868
0.958866
1.112323
1.25053
1.343967
1.366677
1.338451
1.260588
1.116216
0.952378
0.79438
0.658118
0.558842
0.525101
0.541647
0.597774
0.717814
0.870945
1.031539
1.179804
1.307306
1.380952
1.388738
1.345589
1.241122
1.088639
0.919286
0.75707
0.6114
0.508555
0.479356
0.510502
0.606534
0.765505
0.939076
1.103887
1.243069
1.350455
1.399445
1.379654
1.301142
1.157419
0.982225
0.806059
0.676935
0.600369
0.565006
0.577659
0.624053
0.717165
0.852453
1.004936
1.144766
1.257668
1.332612
1.350455
1.330341
1.276161
1.155472
0.997474
0.837853
0.690561
0.576362
0.540998
0.56306
0.622755
0.737928
0.882625
1.032837
1.162609
1.258966
1.317363
1.319634
1.274863
1.196675
1.087341
0.94232
0.793406
0.664607
0.575713
0.54846
0.57409
0.648061
0.782376
0.940698
1.091883
1.224576
1.330016
1.375437
1.361162
1.300493
1.175587
1.021157
0.860888
0.712947
0.594205
0.526723
0.523479
0.566629
0.665256
0.808979
0.967626
1.11654
1.245988
1.334883
1.360188
1.333261
1.25929
1.122704
0.961137
0.800544
0.657469
0.545541
0.500769
0.515368
0.569224
0.690561
0.844342
0.998123
1.136006
1.245988
1.315092
1.333909
1.300493
1.21387
1.078257
0.919935
0.760639
0.616591
0.518937
0.490387
0.518613
0.601018
0.742795
0.920908
1.082475
1.213545
1.311848
1.358242
1.348184
1.290436
1.160663
0.997149
0.832014
0.686344
0.586419
0.535483
0.527697
0.553327
0.638004
0.782376
0.962111
1.132113
1.268699
1.364406
1.391334
1.362135
1.280378
1.138277
0.974764
0.817739
0.680504
0.573117
0.526075
0.533212
0.586743
0.70289
0.854399
1.011424
1.157743
1.276485
1.346887
1.352726
1.310875
1.209976
1.059765
0.893331
0.737604
0.60556
0.517315
0.504662
0.537754
0.613022
0.748959
0.909228
1.067227
1.209328
1.312497
1.349482
1.332287
1.282
1.175262
1.029917
0.87127
0.724951
0.604263
0.535483
0.529643
0.570197
0.664931
0.807681
0.969248
1.124002
1.253126
1.342345
1.367326
1.340074
1.26513
1.134059
0.978008
0.82293
0.681802
0.571495
0.526075
0.536132
0.593556
0.714894
0.867377
1.027321
1.174289
1.294653
1.363108
1.365379
1.318661
1.213545
1.058142
0.89106
0.737604
0.599721
0.520235
0.511475
0.547487
0.622755
0.755448
0.91669
1.077933
1.228794
1.352726
1.411449
1.4108
1.359864
1.229767
1.061062
0.890087
0.734684
0.60848
0.545541
0.549109
0.593556
0.689588
0.831365
0.994229
1.147686
1.269023
1.344291
1.352402
1.309901
1.224576
1.110052
0.999096
0.86835
0.731764
0.616267
0.562411
0.568575
0.622431
0.741173
0.890736
1.049707
1.197648
1.316066
1.383872
1.388089
1.347536
1.248908
1.099021
0.937129
0.780429
0.643843
0.552354
0.537754
0.569548
0.646439
0.783998
0.94232
1.099021
1.240473
1.350131
1.391983
1.378357
1.321581
1.19927
1.044192
0.880029
0.729169
0.60848
0.540674
0.537105
0.579281
0.681477
0.830391
0.994554
1.147361
1.275187
1.365704
1.391009
1.369597
1.29952
1.160663
0.995852
0.831689
0.690561
0.585121
0.538403
0.553327
0.609778
0.724302
0.872243
1.034459
1.183373
1.312172
1.389712
1.397822
1.362459
1.271618
1.124651
0.95984
0.804761
0.665905
0.568575
0.537754
0.554625
0.626324
0.758043
0.917015
1.086368
1.244691
1.373166
1.429292
1.420857
1.361486
1.23366
1.075337
0.908579
0.756421
0.632164
0.556247
0.542621
0.573766
0.670447
0.821307
0.985794
1.149957
1.290436
1.381276
1.409826
1.388089
1.318337
1.178182
1.009153
0.843369
0.695752
0.586743
0.542296
0.5543
0.611725
0.733062
0.886843
1.045814
1.189537
1.303737
1.373166
1.386467
1.354673
1.263508
1.113945
0.94524
0.785944
0.65163
0.557869
0.531914
0.556571
0.632813
0.771994
0.932912
1.092208
1.236904
1.345264
1.390685
1.379654
1.324501
1.198946
1.039325
0.870621
0.710352
0.585446
0.520559
0.523155
0.572144
0.678882
0.837853
1.000069
1.151254
1.273241
1.360513
1.386143
1.365704
1.300168
1.168774
1.005909
0.841422
0.69413
0.580579
0.534185
0.545541
0.601667
0.721382
0.876461
1.038352
1.183049
1.300493
1.372192
1.381601
1.345589
1.250206
1.101292
0.934534
0.77686
0.642221
0.545216
0.515693
0.539376
0.611076
0.75123
0.918312
1.076635
1.216141
1.329692
1.380628
1.368624
1.31639
1.19635
1.038352
0.876785
0.727871
0.610427
0.540674
0.533212
0.573117
0.669798
0.809952
0.968924
1.118487
1.24534
1.337803
1.365704
1.342993
1.272267
1.136655
0.967626
0.797624
0.646439
0.532563
0.490063
0.504013
0.561438
0.687642
0.86251
1.041921
1.197324
1.317039
1.384845
1.386792
1.343967
1.245988
1.095452
0.931614
0.778158
0.642221
0.547163
0.515693
0.533212
0.599721
0.730142
0.89106
1.057494
1.209976
1.326772
1.376086
1.365379
1.311524
1.191159
1.036081
0.871919
0.718463
0.594205
0.522181
0.514071
0.552029
0.646114
0.787242
0.95108
1.108754
1.241446
1.332936
1.358566
1.333909
1.260588
1.125949
0.965355
0.805086
0.660714
0.545865
0.503689
0.515693
0.570197
0.689588
0.841747
1.002016
1.150281
1.267725
1.339749
1.348833
1.308604
1.212572
1.067875
0.903064
0.745715
0.610427
0.518613
0.494605
0.519262
0.590961
0.726573
0.88522
1.039974
1.178831
1.288813
1.342345
1.337154
1.279405
1.153201
0.990012
0.818387
0.667202
0.551056
0.492009
0.494929
0.542945
0.645465
0.790811
0.94816
1.091559
1.218736
1.315092
1.350131
1.331638
1.265779
1.134708
0.969897
0.80249
0.653252
0.539701
0.494605
0.507582
0.565655
0.683748
0.833311
0.993581
1.140873
1.260588
1.331638
1.339425
1.301142
1.209652
1.065929
0.902415
0.74831
0.614969
0.521208
0.495254
0.520559
0.592583
0.722031
0.879705
1.039974
1.183049
1.294004
1.343642
1.338776
1.286867
1.1678
1.013371
0.850182
0.700294
0.57409
0.498498
0.488765
0.527697
0.625026
0.774914
0.938752
1.092532
1.223603
1.318986
1.341696
1.311524
1.233336
1.092208
0.938427
0.789189
0.653252
0.546838
0.50012
0.512124
0.572144
0.689588
0.840449
0.999096
1.142819
1.252801
1.317363
1.327096
1.288489
1.204461
1.076959
0.927072
0.775563
0.637679
0.535159
0.501093
0.518613
0.584472
0.717165
0.88522
1.052303
1.196999
1.312172
1.366353
1.355322
1.29368
1.166503
1.006558
0.839151
0.695103
0.587068
0.518937
0.510177
0.549109
0.63995
0.77978
0.94524
1.099994
1.230091
1.324825
1.353051
1.330665
1.264481
1.130491
0.96795
0.806384
0.662336
0.55138
0.501418
0.507906
0.56014
0.674664
0.825849
0.990661
1.141521
1.260263
1.335532
1.349482
1.312821
1.218412
1.07112
0.906633
0.748635
0.611725
0.51472
0.486494
0.508555
0.578957
0.711974
0.868026
1.025699
1.174289
1.288165
1.34202
1.3391
1.289138
1.17364
1.021157
0.848884
0.688939
0.557544
0.47741
0.473841
0.528995
0.628271
0.769723
0.938103
1.101941
1.236255
1.330016
1.355646
1.329692
1.254748
1.114269
0.947187
0.781727
0.642546
0.539376
0.491685
0.508231
0.561762
0.675313
0.820334
0.978332
1.129842
1.253775
1.330989
1.346238
1.316066
1.225549
1.077933
0.908579
0.749932
0.615618
0.519586
0.492658
0.515693
0.585446
0.719111
0.878732
1.03673
1.178831
1.288813
1.340722
1.332936
1.280703
1.163258
1.0111
0.847262
0.695103
0.573442
0.499471
0.49136
0.529319
0.620484
0.759341
0.917339
1.069173
1.200892
1.304062
1.341047
1.328394
1.263183
1.127895
0.963733
0.797624
0.646763
0.528995
0.472219
0.476437
0.536456
0.657145
0.807032
0.973466
1.134059
1.26221
1.333261
1.351104
1.325474
1.23074
1.086044
0.918637
0.762261
0.627297
0.527048
0.497849
0.522506
0.593556
0.721707
0.873541
1.028295
1.169098
1.277458
1.339425
1.34494
1.29952
1.179804
1.024077
0.857968
0.703863
0.580904
0.506933
0.497525
0.533861
0.625675
0.768101
0.930316
1.085719
1.21679
1.312497
1.342993
1.321905
1.251828
1.118162
0.960164
0.800868
0.656821
0.543594
0.493307
0.503689
0.556896
0.671096
0.820334
0.981901
1.133086
1.255721
1.330016
1.341696
1.306333
1.217114
1.074364
0.91085
0.753177
0.616915
0.519586
0.490387
0.5118
0.575388
0.70289
0.856022
1.01402
1.168774
1.292382
1.354673
1.355322
1.304711
1.186617
1.03089
0.863159
0.709378
0.584472
0.512773
0.502067
0.537754
0.622755
0.758368
0.914744
1.064956
1.205759
1.311848
1.346562
1.324825
1.264481
1.137953
0.980603
0.818712
0.673691
0.560789
0.507582
0.513422
0.562735
0.673691
0.820334
0.97963
1.13114
1.257992
1.33618
1.345589
1.30763
1.214194
1.069173
0.907606
0.755123
0.623729
0.527048
0.49428
0.514071
0.581228
0.712298
0.871919
1.028295
1.170071
1.281027
1.335856
1.332612
1.28492
1.172342
1.01986
0.855373
0.700619
0.575064
0.500445
0.492009
0.530617
0.621133
0.761288
0.922854
1.077284
1.209003
1.306008
1.336505
1.317363
1.25053
1.119136
0.95984
0.797299
0.650981
0.535159
0.477085
0.475788
0.522181
0.635084
0.785295
0.962435
1.137953
1.267401
1.34202
1.35078
1.31055
1.219709
1.076311
0.913446
0.75707
0.622755
0.525101
0.493631
0.517964
0.586419
0.718463
0.876136
1.035108
1.177533
1.288489
1.342993
1.343318
1.296275
1.181426
1.02797
0.863483
0.711325
0.588041
0.5118
0.50012
0.535159
0.625026
0.76583
0.926748
1.080204
1.210625
1.303413
1.334558
1.317688
1.263183
1.143792
0.98839
0.830067
0.681802
0.566953
0.510826
0.514071
0.562735
0.673691
0.821956
0.981252
1.130491
1.25345
1.330665
1.342669
1.308928
1.219061
1.075662
0.912148
0.752852
0.618862
0.522506
0.491685
0.515368
0.583175
0.712947
0.869323
1.02505
1.166827
1.280703
1.337154
1.333585
1.284596
1.170396
1.017913
0.855048
0.700943
0.57409
0.496227
0.484547
0.521857
0.613671
0.754474
0.91669
1.07112
1.203812
1.301142
1.333261
1.318661
1.257343
1.125624
0.965355
0.803788
0.657145
0.543594
0.488765
0.495254
0.545216
0.658767
0.807032
0.966328
1.115891
1.237878
1.314443
1.327421
1.294004
1.206408
1.061062
0.89106
0.732413
0.599721
0.502716
0.480979
0.510502
0.57701
0.70289
0.857968
1.015317
1.157419
1.27389
1.331314
1.326447
1.276161
1.158392
1.002989
0.836231
0.682451
0.565006
0.497525
0.485196
0.520884
0.610427
0.750581
0.911175
1.066253
1.203163
1.302115
1.333909
1.312172
1.243393
1.10778
0.941671
0.775563
0.626648
0.510177
0.458917
0.479356
0.544567
0.661687
0.813521
0.974115
1.121082
1.238202
1.312172
1.32807
1.297249
1.208679
1.067551
0.907931
0.757719
0.620809
0.518937
0.483899
0.502716
0.572144
0.704188
0.861212
1.021806
1.157419
1.266103
1.318337
1.312497
1.266428
1.160663
1.013046
0.848235
0.692832
0.564033
0.484547
0.472543
0.508555
0.59745
0.746039
0.912473
1.068524
1.201866
1.299844
1.331638
1.314443
1.248584
1.117189
0.955298
0.789513
0.639626
0.521533
0.46573
0.479032
0.535808
0.649359
0.798597
0.959191
1.109078
1.226522
1.2966
1.301466
1.263508
1.172667
1.032837
0.888789
0.761936
0.642221
0.545216
0.508555
0.52283
0.58577
0.713596
0.86835
1.024726
1.167151
1.281027
1.339425
1.337478
1.289138
1.175911
1.020833
0.855697
0.701268
0.575064
0.50888
0.50304
0.539701
0.624053
0.766154
0.924801
1.077608
1.209652
1.308604
1.35078
1.338127
1.274538
1.144117
0.97963
0.82293
0.677909
0.567602
0.519262
0.527048
0.575713
0.688615
0.835582
0.995203
1.141197
1.260588
1.3391
1.3537
1.325474
1.248259
1.113945
0.952053
0.792433
0.651954
0.545541
0.506609
0.527372
0.597125
0.738253
0.90566
1.067551
1.212572
1.326447
1.387116
1.388089
1.34202
1.2249
1.079555
0.917988
0.762585
0.635084
0.554949
0.541323
0.576037
0.662336
0.802815
0.964057
1.118811
1.252801
1.351104
1.382899
1.365704
1.300493
1.173965
1.016615
0.855048
0.712947
0.596801
0.540674
0.549109
0.598747
0.70873
0.85667
1.015642
1.165854
1.286218
1.360837
1.37349
1.343642
1.261561
1.123353
0.961786
0.808006
0.672069
0.572144
0.535808
0.553976
0.616915
0.741497
0.892358
1.044516
1.184671
1.304386
1.37057
1.381276
1.341047
1.232038
1.081177
0.915393
0.760639
0.627622
0.533861
0.509204
0.536781
0.632813
0.803788
0.98255
1.14509
1.277458
1.370246
1.400418
1.380303
1.312821
1.179804
1.021482
0.858941
0.712947
0.59745
0.540025
0.543918
0.592908
0.700619
0.848235
1.007207
1.153525
1.273565
1.348833
1.360837
1.331963
1.254748
1.11654
0.960164
0.809952
0.674989
0.571495
0.53451
0.551056
0.613022
0.739551
0.892358
1.04841
1.191808
1.31347
1.382574
1.38517
1.341047
1.226522
1.06528
0.890736
0.72852
0.595827
0.52575
0.540025
0.586419
0.678233
0.818387
0.973466
1.121731
1.25053
1.353051
1.394903
1.378357
1.312497
1.178507
1.014669
0.85148
0.707756
0.590637
0.532563
0.545216
0.60264
0.713921
0.861212
1.020508
1.171045
1.294329
1.374463
1.39036
1.357917
1.274538
1.12822
0.965031
0.807681
0.673042
0.572468
0.53743
0.556247
0.620809
0.747013
0.903064
1.059765
1.206732
1.32223
1.381601
1.381601
1.337154
1.227171
1.075337
0.910202
0.755123
0.628271
0.548136
0.536132
0.570846
0.65163
0.786593
0.941996
1.095777
1.235607
1.343967
1.387765
1.374463
1.311524
1.181751
1.02505
0.865754
0.722031
0.607183
0.544243
0.535159
0.571495
0.674664
0.821956
0.9965
1.172991
1.30763
1.389063
1.399769
1.362459
1.271943
1.127246
0.966328
0.811574
0.669149
0.56014
0.51991
0.545216
0.621782
0.752203
0.907931
1.063658
1.212247
1.329367
1.394903
1.397498
1.349158
1.235282
1.077933
0.907931
0.749608
0.615618
0.539701
0.529643
0.56014
0.649683
0.800219
0.968599
1.125624
1.25929
1.357593
1.394254
1.376086
1.310226
1.17948
1.018886
0.857319
0.713596
0.602316
0.54035
0.544892
0.592583
0.699321
0.846937
1.00818
1.160014
1.283622
1.365704
1.381276
1.350131
1.267725
1.129842
0.970221
0.814819
0.678233
0.576362
0.538403
0.555273
0.615618
0.738577
0.889762
1.050032
1.201217
1.319959
1.385494
1.390685
1.347536
1.243717
1.094803
0.927721
0.767452
0.635408
0.552678
0.540998
0.580255
0.670771
0.814494
0.974439
1.127895
1.262534
1.367326
1.40496
1.386143
1.320932
1.18824
1.024726
0.86835
0.724951
0.601992
0.535483
0.527372
0.565006
0.67434
0.834285
1.007531
1.178831
1.315741
1.397498
1.411773
1.374788
1.28784
1.146388
0.978008
0.818387
0.677909
0.575064
0.536456
0.552678
0.613671
0.740524
0.900144
1.063658
1.209652
1.322554
1.384521
1.38517
1.340398
1.235282
1.08507
0.920583
0.764856
0.636057
0.552678
0.535808
0.567926
0.650007
0.78854
0.948809
1.102914
1.23658
1.335532
1.37057
1.352402
1.29368
1.167476
1.013371
0.857968
0.715867
0.60264
0.542621
0.543918
0.588041
0.691859
0.837853
1.003638
1.159365
1.286218
1.368948
1.385818
1.354349
1.272267
1.129842
0.965031
0.801517
0.654874
0.543918
0.504338
0.530941
0.601992
0.738902
0.897873
1.059116
1.202515
1.319959
1.380952
1.381601
1.334558
1.225874
1.07404
0.907931
0.750581
0.620484
0.532239
0.50888
0.540674
0.627297
0.770047
0.935832
1.103238
1.254099
1.360188
1.394903
1.37349
1.30763
1.175587
1.019211
0.856346
0.706783
0.589988
0.528346
0.532239
0.578633
0.682451
0.827472
0.986767
1.138926
1.262534
1.342345
1.355971
1.322879
1.238851
1.104861
0.948485
0.794055
0.658118
0.555598
0.517964
0.534185
0.596476
0.721382
0.875163
1.034459
1.180129
1.294653
1.355322
1.354024
1.309253
1.200244
1.049058
0.884247
0.732738
0.605885
0.520235
0.507582
0.537754
0.622106
0.767452
0.929019
1.084097
1.221007
1.323203
1.362459
1.346562
1.285245
1.155796
0.997149
0.833311
0.680504
0.554949
0.485196
0.48325
0.530617
0.650007
0.811899
0.980279
1.138926
1.268699
1.352726
1.368299
1.335532
1.250855
1.108754
0.944916
0.783998
0.644492
0.53743
0.495902
0.508231
0.564033
0.684073
0.840124
1.004936
1.155796
1.277134
1.34494
1.348833
1.305035
1.194404
1.042245
0.875487
0.718463
0.590961
0.505311
0.488441
0.519262
0.599721
0.735009
0.892033
1.042894
1.177209
1.280703
1.320283
1.310875
1.25637
1.130491
0.969573
0.80541
0.65455
0.539052
0.476437
0.478383
0.524452
0.628595
0.774914
0.935183
1.088639
1.213221
1.298222
1.318661
1.289462
1.209328
1.068849
0.906308
0.747986
0.610427
0.505311
0.460215
0.468001
0.520884
0.638652
0.79957
0.980279
1.138926
1.263508
1.337803
1.348509
1.311199
1.206083
1.052952
0.883923
0.726898
0.596152
0.507582
0.48033
0.506284
0.584797
0.725924
0.898847
1.0682
1.212572
1.320283
1.360188
1.34202
1.275512
1.14801
0.989039
0.826174
0.678557
0.564033
0.504338
0.5118
0.558193
0.65974
0.804761
0.965355
1.117838
1.241771
1.329367
1.353051
1.328394
1.25053
1.110376
0.947836
0.788864
0.650332
0.546838
0.50888
0.526075
0.587717
0.711325
0.864781
1.024077
1.171369
1.29076
1.35662
1.359864
1.318337
1.215167
1.066902
0.903389
0.746364
0.613996
0.52867
0.520559
0.559167
0.641897
0.777509
0.936805
1.091234
1.228469
1.330665
1.371219
1.356944
1.295951
1.17656
1.022779
0.857644
0.715543
0.606534
0.545865
0.544567
0.587392
0.69705
0.844991
1.006882
1.157743
1.276485
1.357593
1.373814
1.34494
1.269023
1.131788
0.972168
0.813197
0.676935
0.576362
0.541647
0.563384
0.625675
0.744417
0.894629
1.053925
1.197324
1.314443
1.378681
1.383547
1.345589
1.244042
1.092857
0.929668
0.77686
0.64871
0.561113
0.540674
0.567926
0.644168
0.77686
0.931939
1.089937
1.224576
1.334558
1.378681
1.36765
1.316714
1.19927
1.045814
0.886194
0.735982
0.611076
0.541972
0.539052
0.583175
0.690237
0.844666
1.0111
1.163258
1.287516
1.374139
1.393929
1.36473
1.285893
1.14217
0.974115
0.811574
0.668825
0.563384
0.534834
0.558518
0.618538
0.741173
0.892682
1.049707
1.195053
1.315092
1.383223
1.385494
1.344616
1.244691
1.095452
0.929343
0.773291
0.642221
0.550407
0.531914
0.555922
0.630217
0.760314
0.924477
1.088639
1.235931
1.348833
1.394578
1.378681
1.31639
1.186293
1.026997
0.86251
0.712623
0.59161
0.523804
0.518937
0.559816
0.658443
0.804112
0.966653
1.121082
1.247611
1.337154
1.360188
1.32807
1.253126
1.116865
0.95692
0.79957
0.661038
0.553976
0.521208
0.545865
0.606209
0.725276
0.880029
1.043219
1.194079
1.312172
1.375761
1.37349
1.32515
1.220358
1.07112
0.915717
0.769074
0.64579
0.562735
0.539701
0.566953
0.644168
0.778158
0.933885
1.085719
1.220358
1.31931
1.368624
1.36473
1.308279
1.182724
1.032512
0.880354
0.735982
0.617564
0.552354
0.548785
0.590637
0.689588
0.833636
0.994554
1.148334
1.274538
1.357917
1.374139
1.342993
1.266752
1.133735
0.978657
0.830067
0.697374
0.596801
0.550731
0.56306
0.620484
0.742146
0.894629
1.053276
1.198946
1.317363
1.383547
1.387765
1.345913
1.242744
1.093505
0.929343
0.774914
0.64579
0.559491
0.54035
0.569873
0.64871
0.78562
0.945565
1.101616
1.239824
1.342993
1.383547
1.367975
1.306333
1.180129
1.026348
0.868674
0.726249
0.606534
0.549758
0.553327
0.598098
0.701592
0.845315
1.003962
1.156445
1.286542
1.37641
1.400418
1.371868
1.29076
1.148983
0.987092
0.830716
0.694779
0.589988
0.546514
0.564682
0.626324
0.747337
0.894304
1.043867
1.180778
1.289138
1.356944
1.377708
1.348509
1.265779
1.133735
0.972492
0.812872
0.67726
0.586419
0.563709
0.591285
0.667851
0.805086
0.965031
1.118811
1.255397
1.358242
1.401391
1.389712
1.332287
1.209652
1.058142
0.898198
0.749608
0.629244
0.564033
0.562087
0.604587
0.709054
0.856995
1.017588
1.169423
1.2966
1.386467
1.410151
1.383547
1.306982
1.168125
1.006233
0.846937
0.70581
0.596801
0.551056
0.562411
0.619511
0.74831
0.914095
1.080204
1.228145
1.34494
1.410475
1.412746
1.367975
1.265454
1.118162
0.953675
0.79957
0.670771
0.583499
0.562735
0.588365
0.660065
0.787891
0.938752
1.090261
1.230091
1.336829
1.384521
1.39036
1.355971
1.24534
1.09383
0.932912
0.779456
0.655523
0.586419
0.581877
0.622755
0.721382
0.865754
1.025375
1.177858
1.305359
1.392632
1.415666
1.39036
1.311199
1.168449
1.003962
0.843369
0.70289
0.603614
0.569224
0.587068
0.646439
0.773291
0.928045
1.086368
1.230416
1.346562
1.41372
1.416964
1.377059
1.276485
1.126922
0.960813
0.803788
0.672069
0.584797
0.566629
0.595179
0.669473
0.802166
0.961462
1.124002
1.266428
1.372192
1.415017
1.404311
1.346562
1.223603
1.066902
0.904686
0.753826
0.634435
0.570522
0.569548
0.612698
0.711649
0.855697
1.015642
1.168449
1.295951
1.384845
1.405609
1.371219
1.285245
1.139899
0.980279
0.827472
0.696077
0.603938
0.563384
0.577659
0.644168
0.769398
0.924477
1.084097
1.22782
1.343642
1.410151
1.414368
1.370895
1.268699
1.118162
0.953027
0.799895
0.663958
0.573117
0.551705
0.575713
0.65163
0.782376
0.936481
1.08799
1.22782
1.3391
1.397174
1.397822
1.346887
1.223603
1.065604
0.904037
0.74831
0.626
0.55722
0.552678
0.591285
0.685046
0.823903
0.978657
1.134708
1.266103
1.362459
1.393605
1.370895
1.297249
1.155148
0.991958
0.832987
0.693481
0.588365
0.544567
0.557544
0.613671
0.732089
0.883923
1.043867
1.189862
1.30763
1.37641
1.38225
1.34202
1.24242
1.093505
0.928694
0.772967
0.643194
0.5543
0.531266
0.560789
0.642221
0.777509
0.934858
1.090261
1.22782
1.332612
1.383223
1.375437
1.318661
1.194404
1.037054
0.871919
0.720409
0.606858
0.544567
0.540674
0.579606
0.672069
0.814494
0.97671
1.134059
1.27097
1.363108
1.384196
1.353375
1.278107
1.137953
0.977359
0.824227
0.684397
0.582526
0.54035
0.550731
0.604587
0.720734
0.868999
1.027321
1.177533
1.296924
1.367326
1.376086
1.335856
1.23366
1.080853
0.912148
0.764532
0.647412
0.563709
0.540025
0.56306
0.635732
0.769074
0.92837
1.085719
1.224251
1.329367
1.373814
1.361162
1.30244
1.177533
1.01986
0.856022
0.705485
0.587392
0.52283
0.521857
0.565006
0.658767
0.80541
0.966328
1.117513
1.243717
1.332936
1.357917
1.332287
1.256695
1.122704
0.963733
0.80541
0.662336
0.553976
0.50888
0.523155
0.58285
0.701268
0.852128
1.007856
1.148983
1.260912
1.323528
1.32807
1.295626
1.203163
1.060738
0.903389
0.753826
0.628271
0.538403
0.515044
0.540674
0.612698
0.744742
0.902091
1.057818
1.195377
1.300493
1.343642
1.330341
1.270321
1.144117
0.981577
0.814494
0.668825
0.558842
0.510177
0.52283
0.567277
0.660389
0.798922
0.956595
1.110052
1.240473
1.330989
1.354349
1.329367
1.255397
1.118487
0.956595
0.798597
0.656821
0.546189
0.495902
0.506284
0.561762
0.688615
0.845315
1.010127
1.158392
1.275187
1.345264
1.3537
1.320932
1.224251
1.076635
0.913446
0.755772
0.624377
0.531914
0.510502
0.538079
0.612698
0.747661
0.906308
1.062036
1.201541
1.310875
1.358242
1.349158
1.295302
1.176236
1.022131
0.860888
0.712947
0.593881
0.52575
0.520884
0.56306
0.659416
0.80249
0.964706
1.117838
1.247286
1.339749
1.36765
1.343967
1.27389
1.137953
0.975088
0.813845
0.670771
0.559491
0.513097
0.527372
0.589014
0.715218
0.87127
1.036081
1.184995
1.297249
1.358891
1.358891
1.31639
1.221332
1.088315
0.938427
0.789513
0.662336
0.573117
0.551705
0.578633
0.651954
0.782051
0.936805
1.091234
1.229442
1.340722
1.389387
1.379979
1.323203
1.198946
1.047436
0.889762
0.74539
0.628271
0.554949
0.549434
0.587392
0.680504
0.824227
0.987092
1.138602
1.27097
1.367001
1.3962
1.372517
1.297573
1.160338
1.001367
0.842395
0.699321
0.589339
0.542296
0.553002
0.611076
0.734035
0.885869
1.043219
1.188888
1.306657
1.377059
1.383547
1.346238
1.252801
1.10778
0.942969
0.785944
0.653901
0.559491
0.535808
0.564033
0.636057
0.768425
0.928694
1.087017
1.231065
1.34202
1.390036
1.381601
1.327745
1.206083
1.049707
0.884247
0.732089
0.603289
0.527697
0.515368
0.553976
0.658767
0.819361
0.992283
1.157419
1.290111
1.378681
1.400742
1.37349
1.297897
1.162285
1.004611
0.847262
0.705485
0.595503
0.547812
0.557544
0.6114
0.726573
0.874839
1.030241
1.174289
1.29076
1.360837
1.374788
1.344291
1.255397
1.112971
0.949133
0.786918
0.652927
0.559491
0.536456
0.563709
0.63411
0.763559
0.919935
1.080853
1.229118
1.341047
1.389063
1.380303
1.325474
1.206083
1.051978
0.887816
0.736955
0.613996
0.541647
0.535483
0.577984
0.675313
0.814819
0.974764
1.126922
1.256046
1.351429
1.381276
1.360188
1.28784
1.151579
0.990336
0.830391
0.688615
0.578308
0.532239
0.541972
0.597125
0.711001
0.858941
1.014669
1.15969
1.278107
1.34786
1.356944
1.321581
1.236255
1.101292
0.94232
0.786593
0.653252
0.558842
0.532239
0.558842
0.629244
0.760963
0.917988
1.074688
1.214194
1.32223
1.371543
1.362459
1.308279
1.188888
1.035432
0.872243
0.719436
0.594205
0.523804
0.52283
0.5689
0.667851
0.808979
0.968599
1.122704
1.253126
1.355646
1.388089
1.364082
1.289138
1.150605
0.989039
0.829418
0.687642
0.580255
0.533537
0.545216
0.597125
0.709703
0.855048
1.007531
1.14801
1.266428
1.349158
1.368624
1.341696
1.256046
1.112647
0.949458
0.79438
0.660389
0.566953
0.541972
0.566304
0.638004
0.769398
0.92545
1.081502
1.222629
1.330989
1.37933
1.373814
1.323528
1.206083
1.052303
0.88814
0.733062
0.607831
0.532239
0.52283
0.573117
0.68018
0.827472
0.991958
1.151254
1.28492
1.380303
1.406907
1.380628
1.30763
1.171369
1.009153
0.849208
0.704836
0.593232
0.544892
0.556571
0.618213
0.740199
0.891385
1.049707
1.195377
1.315417
1.386467
1.395876
1.358891
1.262534
1.115891
0.951404
0.795353
0.663634
0.572144
0.550731
0.577335
0.651305
0.783998
0.940374
1.096101
1.238851
1.34786
1.397498
1.391009
1.340722
1.221656
1.067227
0.901766
0.747986
0.622755
0.550407
0.541323
0.586743
0.684073
0.828445
0.996176
1.15385
1.283947
1.377059
1.403987
1.375761
1.301142
1.160338
0.995527
0.835582
0.696726
0.598098
0.56306
0.578957
0.633786
0.746039
0.894953
1.053925
1.200244
1.318661
1.389712
1.398796
1.358891
1.26221
1.111025
0.944267
0.785944
0.653901
0.564358
0.546838
0.575388
0.649034
0.781402
0.938427
1.093505
1.232038
1.340398
1.39036
1.380628
1.328394
1.210301
1.058791
0.897873
0.750581
0.622755
0.545216
0.532563
0.572468
0.668825
0.820983
0.994878
1.153201
1.281351
1.371219
1.397498
1.374139
1.301142
1.162609
0.999096
0.841098
0.703214
0.595503
0.546838
0.55722
0.614644
0.734684
0.886518
1.044192
1.191159
1.309901
1.379979
1.384521
1.341696
1.246313
1.106483
0.95108
0.801517
0.67434
0.581552
0.553002
0.576037
0.644492
0.776211
0.932263
1.087341
1.227171
1.337154
1.388738
1.384196
1.335856
1.220034
1.066578
0.908255
0.762585
0.642221
0.566304
0.557869
0.60264
0.698348
0.841747
0.997474
1.147686
1.274214
1.368948
1.401391
1.385494
1.316066
1.181426
1.021482
0.862186
0.719436
0.610751
0.557544
0.567926
0.621133
0.735009
0.88522
1.042894
1.192457
1.314768
1.39036
1.403662
1.367001
1.272592
1.124327
0.956595
0.797299
0.660389
0.569873
0.553002
0.578633
0.648061
0.78562
0.945889
1.10259
1.242095
1.346887
1.395551
1.392307
1.346238
1.229767
1.073715
0.907282
0.751879
0.622755
0.545865
0.535159
0.580579
0.685371
0.837853
1.003638
1.160338
1.286218
1.375761
1.400742
1.377059
1.309253
1.175911
1.016291
0.857644
0.713921
0.604263
0.553976
0.562087
0.614644
0.727547
0.874839
1.032188
1.177209
1.292707
1.360188
1.368624
1.333261
1.250855
1.120433
0.967302
0.814494
0.676935
0.581877
0.552029
0.572468
0.641248
0.771669
0.928045
1.086044
1.23074
1.341696
1.393929
1.385494
1.333585
1.217114
1.063333
0.89982
0.749608
0.626973
0.553651
0.546514
0.587068
0.679206
0.817739
0.975088
1.1253
1.252477
1.354349
1.392307
1.372192
1.30244
1.168125
1.007856
0.848884
0.706783
0.596476
0.546189
0.554625
0.606858
0.719436
0.867377
1.026348
1.174289
1.294653
1.36765
1.378032
1.342669
1.251828
1.109727
0.949782
0.796975
0.663309
0.56598
0.536456
0.558842
0.629893
0.765505
0.921881
1.075662
1.217114
1.330989
1.387441
1.38225
1.328394
1.213221
1.058791
0.893331
0.740199
0.615293
0.538727
0.528346
0.570846
0.670447
0.815792
0.974764
1.124327
1.252801
1.346887
1.37933
1.359539
1.291733
1.158067
0.995527
0.826174
0.670447
0.54846
0.495578
0.520884
0.600369
0.731115
0.882949
1.03965
1.186617
1.305359
1.377383
1.384845
1.345913
1.255721
1.112971
0.950756
0.795677
0.661687
0.566629
0.538727
0.560464
0.629244
0.759341
0.916366
1.073391
1.212247
1.323528
1.376086
1.369921
1.31931
1.203812
1.050681
0.887816
0.73728
0.615293
0.541972
0.534185
0.572793
0.66266
0.805735
0.964382
1.116865
1.246962
1.342345
1.374788
1.356944
1.29368
1.162609
1.002016
0.841098
0.69705
0.585121
0.53451
0.542945
0.596152
0.709378
0.857968
1.016615
1.165529
1.287516
1.368948
1.384196
1.347211
1.254424
1.108429
0.944267
0.786918
0.650981
0.552678
0.515368
0.529968
0.592583
0.718787
0.878732
1.051005
1.218412
1.348184
1.409178
1.401067
1.344291
1.225225
1.069822
0.904686
0.750906
0.626973
0.550731
0.540998
0.576686
0.669149
0.809952
0.967626
1.115891
1.241771
1.333261
1.364082
1.347211
1.289138
1.161961
1.001691
0.842395
0.69997
0.588365
0.537754
0.544892
0.596152
0.70873
0.856995
1.015966
1.163258
1.283298
1.358891
1.371868
1.337478
1.251179
1.108105
0.943294
0.785944
0.651305
0.558842
0.530292
0.553651
0.622755
0.750906
0.90566
1.062036
1.201866
1.313795
1.368948
1.365704
1.318337
1.201541
1.048734
0.889438
0.740524
0.617889
0.542621
0.533861
0.572468
0.662336
0.803139
0.96276
1.113945
1.243393
1.3391
1.372192
1.352078
1.28784
1.156445
0.995852
0.835582
0.695752
0.589339
0.538403
0.544567
0.595503
0.703863
0.851804
1.009478
1.154823
1.27097
1.345589
1.355322
1.32515
1.240149
1.109078
0.953675
0.808979
0.676611
0.577984
0.543594
0.563709
0.630217
0.75999
0.916366
1.07404
1.215167
1.327421
1.381601
1.375761
1.322554
1.205759
1.051329
0.887167
0.737928
0.618538
0.546838
0.538079
0.575713
0.665905
0.808006
0.969573
1.124327
1.256695
1.354024
1.384845
1.363757
1.295302
1.162934
1.003314
0.844342
0.702241
0.591285
0.54035
0.54846
0.600694
0.712623
0.860888
1.020508
1.171045
1.297897
1.377708
1.388738
1.350455
1.258317
1.112971
0.955622
0.808655
0.680504
0.585121
0.556247
0.578308
0.645141
0.773616
0.929343
1.085395
1.228469
1.343642
1.398471
1.404635
1.361811
1.250855
1.101292
0.943294
0.795677
0.673042
0.596801
0.58577
0.621458
0.710352
0.852453
1.018237
1.174289
1.304386
1.398471
1.427995
1.405284
1.336829
1.20511
1.044516
0.881976
0.735657
0.622431
0.572144
0.582201
0.634435
0.746364
0.894304
1.052303
1.19927
1.318337
1.394254
1.409502
1.375437
1.282974
1.135682
0.972492
0.814819
0.680504
0.591934
0.56598
0.585446
0.650981
0.778482
0.930641
1.087017
1.231389
1.343967
1.395876
1.388738
1.33618
1.22198
1.066902
0.903713
0.752203
0.632164
0.553002
0.538403
0.573117
0.662011
0.804112
0.969248
1.129842
1.267076
1.36473
1.394903
1.374139
1.306657
1.174289
1.012722
0.849208
0.701592
0.586743
0.533212
0.542945
0.599072
0.712623
0.858941
1.017264
1.173316
1.300168
1.377708
1.387116
1.35078
1.261237
1.115891
0.950431
0.791784
0.655198
0.55722
0.527048
0.548136
0.61432
0.738902
0.892358
1.043867
1.182075
1.292707
1.351104
1.353051
1.311524
1.204137
1.054574
0.887167
0.733386
0.606534
0.528021
0.518613
0.554625
0.642546
0.782051
0.940374
1.092857
1.223927
1.318337
1.354673
1.33618
1.267076
1.134059
0.97379
0.813845
0.667851
0.5543
0.499796
0.509529
0.56306
0.673042
0.817739
0.976061
1.124651
1.246313
1.324825
1.34202
1.303088
1.209328
1.059765
0.89106
0.730791
0.600694
0.515693
0.49136
0.513422
0.579606
0.70581
0.858293
1.012722
1.152876
1.26221
1.313795
1.306333
1.253126
1.137953
0.983523
0.81709
0.663309
0.540674
0.464757
0.454051
0.488441
0.571819
0.709378
0.86543
1.013371
1.140873
1.232362
1.267076
1.262859
1.202515
1.069173
0.907931
0.744742
0.597125
0.480005
0.424852
0.430043
0.477734
0.58577
0.728844
0.882949
1.028944
1.144441
1.217114
1.235931
1.218087
1.138277
0.999745
0.840773
0.681802
0.543918
0.4401
0.410901
0.433612
0.501093
0.631839
0.788864
0.944916
1.085395
1.197648
1.25637
1.253775
1.205434
1.094154
0.942645
0.77978
0.628271
0.504987
0.428421
0.419012
0.457295
0.546838
0.690886
0.853102
1.009478
1.143144
1.240797
1.274538
1.25637
1.190835
1.059765
0.902415
0.744093
0.602316
0.49428
0.444642
0.452429
0.504013
0.615293
0.763883
0.923503
1.074364
1.201541
1.285569
1.301142
1.266103
1.178831
1.039974
0.879056
0.723329
0.589663
0.493307
0.465081
0.489089
0.55722
0.687317
0.844342
1.002665
1.145739
1.258641
1.315092
1.315741
1.267725
1.159365
1.0111
0.849208
0.696726
0.571171
0.493307
0.480979
0.514395
0.601018
0.746688
0.913122
1.070795
1.209976
1.315417
1.351753
1.331963
1.263183
1.128869
0.969897
0.810601
0.670447
0.564358
0.516991
0.524128
0.572468
0.678233
0.823254
0.978981
1.126598
1.248259
1.325799
1.340398
1.314443
1.237553
1.106807
0.954
0.801517
0.664282
0.562087
0.529319
0.548785
0.613671
0.743444
0.900469
1.059765
1.201866
1.314443
1.370895
1.366028
1.317688
1.206083
1.054249
0.890736
0.738902
0.612698
0.535483
0.52575
0.565331
0.653576
0.795028
0.959191
1.107456
1.237878
1.338776
1.376734
1.358566
1.294653
1.16488
1.004611
0.844342
0.698348
0.585121
0.53159
0.537105
0.587717
0.699646
0.849533
1.0111
1.162285
1.285245
1.364082
1.378357
1.345264
1.257668
1.114269
0.951404
0.793731
0.65974
0.562411
0.531266
0.552354
0.618538
0.746039
0.901442
1.063009
1.208354
1.320932
1.378357
1.376086
1.328718
1.216465
1.063333
0.897873
0.74539
0.619835
0.541647
0.52867
0.567926
0.656821
0.798597
0.960813
1.11654
1.249882
1.347536
1.381276
1.361486
1.297249
1.166827
1.007856
0.847262
0.702241
0.590961
0.539052
0.542621
0.589663
0.697374
0.840449
0.991958
1.13925
1.267076
1.351104
1.376086
1.348184
1.268699
1.131788
0.966328
0.803788
0.663634
0.562087
0.53451
0.556571
0.625351
0.755448
0.916366
1.075013
1.215492
1.325474
1.380303
1.37641
1.327745
1.215492
1.062036
0.895602
0.742795
0.615293
0.537105
0.530292
0.567926
0.655847
0.797948
0.959515
1.113945
1.246962
1.346887
1.380952
1.360837
1.294004
1.162285
1.003638
0.8398
0.693157
0.578308
0.523479
0.529643
0.583175
0.696077
0.84272
0.998771
1.143144
1.264157
1.343642
1.368299
1.347536
1.266752
1.118811
0.958218
0.79957
0.661687
0.561762
0.527697
0.547812
0.613996
0.742795
0.898198
1.05652
1.198946
1.311524
1.367326
1.363757
1.316066
1.204461
1.051978
0.888465
0.736631
0.612373
0.533861
0.521208
0.557544
0.644817
0.784647
0.94524
1.099021
1.231713
1.330665
1.362459
1.347536
1.285245
1.155796
0.997149
0.833311
0.684397
0.565331
0.506284
0.512124
0.570846
0.690561
0.846289
1.006233
1.149957
1.261886
1.332287
1.337478
1.304711
1.227171
1.100967
0.953675
0.798273
0.660714
0.56014
0.526723
0.543918
0.607507
0.734684
0.890736
1.047112
1.186942
1.299844
1.3537
1.349158
1.299195
1.18824
1.037054
0.875812
0.723978
0.600369
0.523155
0.5118
0.548785
0.633786
0.772643
0.933561
1.087666
1.221332
1.320283
1.354349
1.335207
1.269996
1.138926
0.980279
0.818063
0.670771
0.556571
0.505635
0.513097
0.562735
0.673367
0.821956
0.982874
1.131788
1.254748
1.334234
1.351104
1.318986
1.232362
1.089288
0.925125
0.768425
0.634435
0.535159
0.503689
0.52283
0.587068
0.711974
0.868674
1.028944
1.175587
1.288165
1.348833
1.35078
1.305684
1.195377
1.044516
0.881327
0.727871
0.60264
0.52283
0.511151
0.547163
0.63411
0.775887
0.937129
1.09091
1.226522
1.327421
1.361162
1.341371
1.275512
1.145739
0.991958
0.835582
0.690237
0.576362
0.520235
0.52575
0.574415
0.682775
0.831365
0.99131
1.141521
1.265454
1.34494
1.363433
1.334558
1.250206
1.105834
0.942645
0.78562
0.64871
0.547487
0.513422
0.537105
0.599396
0.728844
0.887816
1.04549
1.18532
1.293031
1.344616
1.346238
1.316714
1.218736
1.07112
0.908904
0.755772
0.628595
0.551056
0.537105
0.571495
0.660389
0.800868
0.960164
1.112323
1.245988
1.347211
1.390685
1.381276
1.320608
1.190835
1.039974
0.883274
0.740199
0.633137
0.575064
0.573117
0.614644
0.716192
0.86251
1.038352
1.20219
1.330989
1.416315
1.431563
1.400418
1.31347
1.168125
1.002016
0.841747
0.70289
0.599396
0.56014
0.571819
0.623729
0.739551
0.883598
1.037703
1.18824
1.314443
1.379654
1.382574
1.337478
1.22782
1.075986
0.91085
0.761936
0.644168
0.568575
0.557544
0.594854
0.682775
0.824552
0.987416
1.143792
1.278756
1.377708
1.412422
1.392956
1.327745
1.196026
1.035432
0.870297
0.724627
0.6114
0.559167
0.562735
0.608805
0.714245
0.859915
1.018886
1.168449
1.29076
1.372192
1.386143
1.353051
1.266428
1.121731
0.955946
0.798273
0.661363
0.56306
0.530941
0.549109
0.611725
0.737604
0.891385
1.04841
1.191484
1.304062
1.363108
1.360837
1.313795
1.204461
1.052627
0.888465
0.735657
0.608805
0.526399
0.511475
0.543269
0.625026
0.766154
0.928045
1.079555
1.209328
1.306008
1.345913
1.331638
1.269996
1.14509
0.993256
0.834933
0.686668
0.565331
0.502716
0.502391
0.550083
0.658118
0.808979
0.970546
1.12238
1.247286
1.332287
1.348184
1.31931
1.235282
1.090261
0.926099
0.768749
0.633461
0.535808
0.501418
0.520884
0.58285
0.70873
0.861212
1.019211
1.159365
1.269996
1.329043
1.325799
1.279405
1.176884
1.032188
0.87419
0.722031
0.594205
0.510502
0.491685
0.520559
0.598747
0.732089
0.887816
1.051329
1.198946
1.309253
1.351429
1.331638
1.265779
1.134059
0.975088
0.812548
0.663309
0.546514
0.487467
0.489414
0.538079
0.649683
0.798597
0.959515
1.108429
1.231065
1.312497
1.328394
1.295951
1.211923
1.068849
0.90566
0.747013
0.609778
0.507582
0.471895
0.490063
0.554625
0.682126
0.838502
0.995527
1.136006
1.244366
1.297573
1.295626
1.25053
1.148983
1.004936
0.842395
0.689588
0.564033
0.486818
0.478708
0.51472
0.596476
0.738577
0.900144
1.054898
1.18824
1.289138
1.325474
1.307955
1.244691
1.115891
0.958218
0.795677
0.648385
0.530941
0.471246
0.470272
0.51472
0.617564
0.76291
0.925125
1.073715
1.201866
1.295951
1.318337
1.292058
1.214194
1.073715
0.907282
0.747337
0.607507
0.504013
0.467028
0.48617
0.548136
0.673042
0.827796
0.986119
1.131464
1.24534
1.304062
1.303088
1.255397
1.143468
0.994554
0.832987
0.680828
0.555273
0.472219
0.453726
0.486494
0.567926
0.714894
0.882625
1.038352
1.172342
1.271294
1.307955
1.292382
1.230091
1.102914
0.947187
0.784971
0.638652
0.522181
0.460539
0.460215
0.50596
0.610427
0.756421
0.921881
1.075986
1.19927
1.281351
1.297573
1.263183
1.183049
1.046787
0.886194
0.729169
0.589988
0.485845
0.447562
0.466055
0.529643
0.655847
0.814819
0.974764
1.118162
1.229767
1.288165
1.284596
1.238202
1.139899
0.994878
0.835258
0.68829
0.56598
0.482601
0.46573
0.497525
0.580255
0.719111
0.878407
1.033486
1.1678
1.268374
1.306008
1.28784
1.225549
1.099021
0.945889
0.781402
0.630866
0.512448
0.454375
0.462162
0.512124
0.618862
0.765181
0.926099
1.079231
1.204461
1.286867
1.304062
1.272916
1.188888
1.051005
0.888789
0.730142
0.593556
0.490387
0.455024
0.472868
0.53451
0.660389
0.813521
0.970221
1.111674
1.221332
1.280054
1.285569
1.240797
1.131464
0.984821
0.828445
0.681153
0.563384
0.488441
0.474166
0.505635
0.584797
0.720734
0.878732
1.028944
1.15969
1.254424
1.290436
1.27908
1.234309
1.117838
0.963408
0.799246
0.647412
0.526075
0.463459
0.464757
0.5118
0.618862
0.767452
0.930965
1.083448
1.21095
1.291733
1.308928
1.274214
1.195053
1.053276
0.889438
0.730142
0.592908
0.49136
0.458268
0.479356
0.543594
0.669798
0.825849
0.983523
1.130166
1.24242
1.305684
1.307306
1.262534
1.156121
1.004936
0.839476
0.684397
0.558842
0.477734
0.463784
0.50012
0.582526
0.719436
0.879705
1.035432
1.170396
1.272592
1.310226
1.291733
1.230416
1.102265
0.941023
0.775887
0.631515
0.519586
0.464108
0.468975
0.516017
0.617889
0.767452
0.933236
1.094479
1.220683
1.302764
1.319959
1.286867
1.201541
1.061387
0.898198
0.739551
0.604263
0.502391
0.464757
0.481952
0.541972
0.664282
0.818063
0.976386
1.120109
1.235607
1.300168
1.306008
1.264481
1.15969
1.008829
0.841098
0.686019
0.562087
0.481627
0.465081
0.496227
0.576362
0.712947
0.872243
1.027646
1.163583
1.266103
1.306008
1.292058
1.231713
1.103563
0.951729
0.785944
0.640599
0.522506
0.462486
0.465081
0.5118
0.615618
0.761936
0.922854
1.07404
1.199595
1.286542
1.306657
1.276809
1.193755
1.050032
0.885545
0.7256
0.590312
0.490063
0.459891
0.480005
0.54035
0.664607
0.818063
0.97671
1.1253
1.2395
1.300817
1.299844
1.252801
1.149308
0.99942
0.83396
0.676935
0.548785
0.467353
0.452429
0.484223
0.562735
0.704512
0.876785
1.039001
1.173316
1.274214
1.312821
1.295951
1.233336
1.106158
0.947187
0.786918
0.635084
0.515693
0.453726
0.455673
0.498498
0.600694
0.74831
0.918961
1.075337
1.200892
1.283622
1.300493
1.267401
1.18532
1.044841
0.885545
0.729818
0.591285
0.485845
0.446589
0.462162
0.522181
0.644168
0.797624
0.958218
1.106483
1.224251
1.286542
1.286542
1.239824
1.138926
0.995203
0.83396
0.679531
0.547163
0.459566
0.439776
0.473192
0.559167
0.698348
0.858617
1.011424
1.144766
1.247611
1.291409
1.281676
1.218736
1.091559
0.933561
0.771345
0.621782
0.502391
0.441398
0.443993
0.489089
0.590637
0.736631
0.902415
1.058791
1.187591
1.273565
1.2966
1.267725
1.187266
1.048085
0.884572
0.729169
0.593556
0.490387
0.450806
0.466055
0.52575
0.649359
0.803788
0.962111
1.107132
1.225225
1.288813
1.289462
1.247611
1.147686
0.996176
0.835258
0.680828
0.552354
0.466379
0.44886
0.479032
0.559816
0.695103
0.851155
1.003314
1.135357
1.235931
1.289462
1.284596
1.229118
1.106158
0.95108
0.789513
0.641248
0.524452
0.462486
0.461188
0.504987
0.604911
0.750906
0.916041
1.072417
1.205759
1.292058
1.312497
1.281676
1.204461
1.058467
0.896575
0.743444
0.606209
0.501093
0.460864
0.474814
0.535483
0.657794
0.808979
0.96795
1.1107
1.224251
1.287516
1.294978
1.256695
1.160987
1.019535
0.855048
0.697374
0.566304
0.479356
0.459891
0.491036
0.572468
0.714245
0.875812
1.033161
1.170071
1.273565
1.31347
1.298871
1.239175
1.111998
0.956271
0.793406
0.640599
0.518613
0.45762
0.46573
0.516991
0.621458
0.768425
0.932263
1.08799
1.218087
1.306333
1.325474
1.294653
1.215167
1.073715
0.911175
0.752203
0.613671
0.507906
0.471246
0.48325
0.543594
0.670122
0.826174
0.988714
1.133411
1.249557
1.312497
1.31347
1.266752
1.161312
1.015966
0.849533
0.70289
0.583499
0.504662
0.489738
0.523804
0.596801
0.732413
0.893331
1.049707
1.187591
1.29076
1.332287
1.317363
1.255721
1.131788
0.97379
0.81125
0.662985
0.542945
0.482925
0.489738
0.536132
0.638004
0.782376
0.944916
1.098048
1.2249
1.314119
1.337154
1.308604
1.229118
1.087666
0.927397
0.769723
0.628595
0.521533
0.48033
0.495578
0.554625
0.680504
0.83396
0.999096
1.151579
1.269996
1.331314
1.330341
1.286867
1.18532
1.035432
0.875163
0.722031
0.599721
0.518288
0.501093
0.532239
0.6114
0.747337
0.905984
1.06236
1.198946
1.302764
1.342993
1.328394
1.268699
1.138926
0.984821
0.826498
0.679206
0.563384
0.500769
0.499796
0.543918
0.644817
0.790162
0.953675
1.10778
1.235931
1.324501
1.34494
1.315092
1.23366
1.09091
0.922854
0.760314
0.623404
0.518937
0.485521
0.508231
0.571171
0.696726
0.850182
1.009478
1.154174
1.270645
1.334558
1.335532
1.291733
1.188564
1.038352
0.873216
0.717165
0.585446
0.497525
0.477085
0.506609
0.58577
0.72268
0.882625
1.041272
1.180129
1.285245
1.326772
1.313146
1.252153
1.124327
0.966004
0.800219
0.652603
0.540025
0.480979
0.483899
0.529319
0.629893
0.773291
0.93421
1.086692
1.215167
1.298546
1.318012
1.287191
1.208354
1.069173
0.905335
0.748635
0.611076
0.501093
0.455997
0.46573
0.516342
0.629244
0.771345
0.924152
1.076635
1.212247
1.306657
1.328394
1.288165
1.181751
1.025699
0.854724
0.693806
0.561113
0.47157
0.450158
0.479356
0.555273
0.692184
0.850831
1.007207
1.144117
1.248908
1.291409
1.276485
1.217438
1.095452
0.935183
0.770696
0.619835
0.499147
0.431016
0.428421
0.47449
0.578633
0.72268
0.881327
1.036406
1.168125
1.254099
1.272267
1.241446
1.164232
1.032512
0.872892
0.72268
0.586743
0.478059
0.435234
0.449509
0.50596
0.629568
0.782051
0.941996
1.08799
1.205759
1.272267
1.275836
1.231713
1.12822
0.977683
0.812223
0.655198
0.524777
0.438154
0.424203
0.456646
0.536781
0.67434
0.835258
0.992932
1.13114
1.236255
1.280378
1.26805
1.209976
1.08507
0.929019
0.76583
0.617564
0.4972
0.433287
0.438803
0.486494
0.588041
0.732089
0.89398
1.047112
1.173965
1.265454
1.290436
1.26221
1.186617
1.049707
0.889114
0.727547
0.584797
0.473192
0.430692
0.450158
0.522506
0.650007
0.80249
0.958542
1.098372
1.207381
1.271294
1.274863
1.238851
1.150281
1.013046
0.856346
0.704188
0.574415
0.483899
0.464108
0.49428
0.571819
0.710352
0.871919
1.029268
1.167151
1.273565
1.316714
1.304386
1.246313
1.122055
0.965355
0.801841
0.651305
0.530941
0.469948
0.468975
0.515368
0.615942
0.759341
0.918961
1.068524
1.194728
1.288489
1.310226
1.283298
1.218412
1.088639
0.93129
0.771669
0.631839
0.527048
0.485196
0.499471
0.55722
0.679855
0.832338
0.992607
1.139899
1.25929
1.330989
1.340722
1.297249
1.194728
1.047436
0.882949
0.7256
0.593556
0.508231
0.485845
0.518937
0.598747
0.736955
0.897873
1.054249
1.192782
1.298871
1.339749
1.327096
1.276161
1.15385
1.007531
0.841422
0.690886
0.571171
0.505635
0.504338
0.546514
0.645465
0.790486
0.954973
1.111674
1.244366
1.340074
1.365704
1.337478
1.259615
1.120433
0.957569
0.797948
0.656496
0.549434
0.509853
0.525101
0.583499
0.703863
0.856995
1.016615
1.163907
1.281027
1.346887
1.351753
1.307955
1.20219
1.04841
0.884572
0.730142
0.597774
0.512124
0.499147
0.531266
0.616591
0.758368
0.917988
1.07112
1.209003
1.312497
1.355322
1.345264
1.286867
1.160987
1.003638
0.834933
0.680504
0.556571
0.489414
0.491685
0.547487
0.652603
0.795353
0.952053
1.103563
1.233336
1.323528
1.341696
1.316714
1.240149
1.100643
0.935832
0.774914
0.633137
0.526075
0.481627
0.496551
0.553976
0.674989
0.83104
0.993256
1.138602
1.253126
1.316714
1.318986
1.281351
1.185969
1.041596
0.878407
0.720409
0.587717
0.497849
0.472868
0.499471
0.574415
0.713921
0.881652
1.041272
1.178831
1.285893
1.330341
1.316066
1.256046
1.131464
0.974764
0.812223
0.666878
0.55138
0.488441
0.487143
0.532888
0.632813
0.77686
0.936481
1.08799
1.214843
1.301791
1.32223
1.294004
1.216465
1.075013
0.913446
0.759341
0.620809
0.516991
0.480979
0.504662
0.565006
0.679855
0.835258
0.990661
1.133735
1.249557
1.314119
1.320283
1.281676
1.180778
1.029592
0.86251
0.703539
0.568251
0.48325
0.467028
0.509204
0.590637
0.730791
0.894304
1.051978
1.187591
1.289787
1.329367
1.313146
1.253775
1.133086
0.984496
0.825849
0.677909
0.556896
0.491036
0.489738
0.530617
0.626324
0.767452
0.926423
1.079231
1.206732
1.295951
1.318986
1.296275
1.226198
1.092208
0.930965
0.774265
0.635732
0.532563
0.485196
0.499147
0.554949
0.674015
0.824876
0.982874
1.12822
1.245015
1.310875
1.315417
1.276161
1.176884
1.031215
0.868674
0.715543
0.579606
0.496876
0.475463
0.504338
0.578957
0.714569
0.872568
1.027646
1.161961
1.269023
1.316066
1.306008
1.249557
1.128869
0.97379
0.809952
0.661363
0.545216
0.484547
0.487143
0.529319
0.625351
0.769723
0.929019
1.076311
1.201217
1.289787
1.314443
1.293355
1.220683
1.082475
0.920908
0.763559
0.62016
0.506284
0.459891
0.472219
0.529319
0.665905
0.837205
1.002665
1.146388
1.259939
1.323528
1.327096
1.28492
1.179804
1.037054
0.872243
0.717814
0.590312
0.50304
0.481952
0.507906
0.578633
0.710676
0.867701
1.025699
1.164556
1.268699
1.314119
1.304711
1.247935
1.125949
0.971519
0.810601
0.662336
0.544567
0.479356
0.475463
0.516991
0.614969
0.763559
0.926423
1.078906
1.203163
1.288165
1.311199
1.283298
1.207705
1.073391
0.918637
0.764207
0.625026
0.515368
0.470272
0.482276
0.537754
0.658767
0.810601
0.966653
1.110052
1.228794
1.300168
1.307306
1.273565
1.180453
1.037054
0.873865
0.719436
0.588041
0.497525
0.475463
0.506609
0.583499
0.718138
0.872892
1.025699
1.160014
1.264157
1.305684
1.292707
1.236255
1.11654
0.971195
0.814494
0.6685
0.551705
0.488116
0.494605
0.538403
0.626324
0.768749
0.924152
1.075986
1.199595
1.297897
1.328394
1.306008
1.231389
1.094479
0.932587
0.774914
0.636057
0.529643
0.485521
0.4972
0.551705
0.668825
0.816441
0.974764
1.121407
1.239824
1.309901
1.313795
1.275187
1.17948
1.035757
0.876785
0.724627
0.593232
0.504338
0.487467
0.516991
0.590961
0.724951
0.882625
1.03673
1.172667
1.276161
1.321905
1.311524
1.257343
1.137628
0.984172
0.824876
0.679206
0.560789
0.492658
0.491036
0.535808
0.628271
0.77102
0.928694
1.081502
1.209328
1.298546
1.320932
1.298546
1.228469
1.093505
0.934858
0.778482
0.636381
0.529643
0.484547
0.492334
0.547487
0.670122
0.82293
0.984496
1.131788
1.247286
1.312497
1.318012
1.283298
1.189862
1.043219
0.879381
0.727547
0.600369
0.517315
0.500445
0.52867
0.599396
0.730142
0.882949
1.039001
1.177209
1.287191
1.337803
1.328394
1.270321
1.148659
0.992607
0.829418
0.683748
0.565655
0.499471
0.497525
0.540025
0.635408
0.777509
0.936156
1.085395
1.211599
1.299844
1.325799
1.302764
1.228794
1.09383
0.936481
0.782376
0.646763
0.542296
0.500769
0.512124
0.566304
0.6831
0.83396
0.990336
1.135682
1.251504
1.320932
1.325474
1.287191
1.188564
1.041272
0.880354
0.72268
0.590961
0.503689
0.480654
0.506933
0.57993
0.713272
0.867701
1.021157
1.167151
1.281027
1.328718
1.317688
1.263508
1.143144
0.987416
0.824552
0.67434
0.553651
0.488765
0.483574
0.523804
0.618538
0.757719
0.914095
1.063333
1.187915
1.280703
1.30763
1.279405
1.203163
1.065604
0.903713
0.742146
0.600369
0.495254
0.449509
0.460864
0.51991
0.640923
0.78854
0.949133
1.097399
1.219061
1.286867
1.287516
1.246313
1.147037
1.000394
0.838502
0.684722
0.554625
0.460539
0.443345
0.472219
0.548785
0.685046
0.842395
0.995527
1.131788
1.236255
1.282974
1.271618
1.21679
1.097074
0.945889
0.784647
0.63703
0.51991
0.459242
0.459891
0.504013
0.600045
0.743119
0.902091
1.050681
1.174289
1.26221
1.287191
1.271943
1.209003
1.075662
0.914744
0.754799
0.613022
0.503364
0.456322
0.469948
0.52867
0.648385
0.807357
0.970221
1.114594
1.228794
1.292382
1.293031
1.251828
1.157094
1.01986
0.865106
0.717814
0.590961
0.500445
0.480005
0.5118
0.58285
0.715867
0.869648
1.024726
1.161961
1.267725
1.313146
1.301142
1.245015
1.123353
0.970221
0.808655
0.660714
0.541323
0.471895
0.466379
0.506609
0.613996
0.772643
0.933885
1.083773
1.209328
1.29952
1.323852
1.298871
1.225225
1.088315
0.930316
0.774265
0.635084
0.527048
0.481627
0.493956
0.548785
0.666878
0.815468
0.970546
1.112971
1.22782
1.29368
1.300493
1.266103
1.174613
1.029268
0.86835
0.715543
0.584797
0.491685
0.467028
0.491036
0.56014
0.693481
0.852128
1.004611
1.144766
1.251504
1.294978
1.280703
1.222629
1.09967
0.941347
0.775238
0.628595
0.50596
0.441074
0.439451
0.480979
0.570846
0.709378
0.864781
1.012073
1.140224
1.230091
1.251504
1.226522
1.154499
1.013046
0.847262
0.683424
0.539701
0.426799
0.377809
0.389164
0.441722
0.557544
0.704188
0.863159
1.009153
1.122704
1.186617
1.187915
1.141846
1.040299
0.893656
0.746688
0.561113
0.431341
0.333687
0.311625
0.342446
0.412199
0.537754
0.688615
0.838502
0.972817
1.077933
1.123029
1.106807
1.04549
0.920583
0.769723
1.134708
1.240797
0.957569
0.253228
0.245441
0.282102
0.373916
0.5118
0.668176
0.815143
0.939725
1.025699
1.044192
1.015642
0.936805
0.783349
1.599295
2.054797
2.04993
1.569122
0.174391
0.189315
0.237331
0.347962
0.492658
0.645465
0.786269
0.899495
0.966328
0.968924
0.922206
0.763559
2.035007
2.997273
3.369722
3.327545
2.281899
0.798597
0.069275
0.13481
0.255174
0.403115
0.549758
0.675962
0.771994
0.803464
0.779456
0.720734
2.426921
4.181778
4.846219
5.116798
5.192067
4.015992
2.715341
1.066253
0.003091
0.059218
0.246739
0.414146
0.544243
0.629568
0.646114
1.11946
3.286667
5.007788
6.392804
7.097806
7.555914
7.556238
6.247132
4.741427
2.860038
0.63411
0.036183
0.218513
0.393707
0.524128
0.724627
2.290659
4.047138
6.301961
7.946214
8.982155
9.702094
10.209202
9.598272
8.369609
6.780506
4.585698
2.521006
0.849208
0.711649
0.965031
1.77319
3.593256
5.291993
7.230177
9.180389
10.631631
10.631631
10.631631
10.631631
10.631631
10.527808
8.918564
6.545289
4.474742
3.221131
3.242544
3.630566
4.934465
6.611474
8.418924
10.55863
10.631631
10.631631
10.631631
10.631631
10.631631
10.631631
10.631631
10.532675
8.372205
6.232208
5.669311
5.829582
6.347383
8.0416
9.656672
10.631631
10.631631
10.631631
10.631631
10.631631
10.631631
10.631631
10.631631
10.631631
10.631631
9.661215
8.213229
8.089293
8.329703
9.106741
10.631631
10.631631
10.631631
10.631631
10.631631
10.631631
10.631631
10.631631
10.631631
10.631631
10.631631
10.631631
10.249109
9.724157
9.682303
9.98501
10.631631
10.631631
10.631631
10.631631
10.631631
10.631631
10.631631
10.631631
10.631631
10.631631
10.631631
10.631631
10.631631
10.201415
9.930828
10.016806
10.449941
10.631631
10.631631
10.631631
10.631631
10.631631
10.631631
10.631631
10.631631
10.631631
10.631631
10.631631
10.631631
10.631631
10.413278
10.097268
10.228669
10.631631
10.631631
10.631631
10.631631
10.631631
10.631631
10.631631
10.631631
10.631631
10.631631
10.631631
10.631631
10.631631
10.631631
10.249433
10.094997
10.217637
10.631631
10.631631
10.631631
10.631631
10.631631
10.631631
10.631631
10.631631
10.631631
10.631631
10.631631
10.631631
10.631631
10.502501
10.000584
9.950943
10.273442
10.631631
10.631631
10.631631
10.631631
10.631631
10.631631
10.631631
10.631631
10.631631
10.631631
10.631631
10.631631
10.631631
10.133606
9.694957
9.737459
10.353905
10.631631
10.631631
10.631631
10.631631
10.631631
10.631631
10.631631
10.631631
10.631631
10.631631
10.631631
10.631631
10.631631
9.769579
9.490233
9.586268
10.631631
10.631631
10.631631
10.631631
10.631631
10.631631
10.631631
10.631631
10.631631
10.631631
10.631631
10.631631
10.631631
9.738432
9.166114
9.057101
9.33158
10.631631
10.631631
10.631631
10.631631
10.631631
10.631631
10.631631
10.631631
10.631631
10.631631
10.631631
10.631631
10.423985
9.124261
8.672962
8.683344
9.200829
10.631631
10.631631
10.631631
10.631631
10.631631
10.631631
10.631631
10.631631
10.631631
10.631631
10.631631
10.631631
9.44773
8.547078
8.204144
8.258326
9.327362
10.631631
10.631631
10.631631
10.631631
10.631631
10.631631
10.631631
10.631631
10.631631
10.631631
10.631631
9.727401
8.201224
7.63605
7.485186
7.71132
9.164492
10.518723
10.631631
10.631631
10.631631
10.631631
10.631631
10.631631
10.631631
10.631631
10.631631
9.866263
8.275846
6.906712
6.399292
6.368795
6.8415
8.427035
9.939912
10.631631
10.631631
10.631631
10.631631
10.631631
10.631631
10.631631
10.631631
10.289989
8.166509
6.604337
5.595015
5.205368
5.226132
6.304881
7.761608
9.39874
10.631631
10.631631
10.631631
10.631631
10.631631
10.631631
10.631631
10.332816
8.606127
6.785048
5.152161
4.510105
4.371247
4.635337
6.10438
7.472533
9.039581
10.631631
10.631631
10.631631
10.631631
10.631631
10.631631
10.631631
9.158003
7.209413
5.675475
4.329395
3.872593
3.871944
4.427699
6.047928
7.607175
9.286482
10.631631
10.631631
10.631631
10.631631
10.631631
10.631631
9.919797
8.330676
6.245834
4.793336
3.847936
3.541995
3.585145
4.663238
6.130983
7.759662
9.699174
10.631631
10.631631
10.631631
10.631631
10.631631
10.568688
9.019466
7.308042
5.436691
3.864158
3.225024
3.124126
3.326896
4.798527
6.174133
7.735004
9.799752
10.631631
10.631631
10.631631
10.631631
10.631631
9.512295
7.868673
5.945081
4.350808
3.061186
2.58427
2.556045
3.0534
4.646692
6.158236
7.859589
9.649859
10.631631
10.631631
10.631631
10.631631
9.955161
8.528261
6.89633
4.79431
3.229242
2.268598
1.943517
2.032411
3.132886
4.609382
6.294175
8.256704
9.761792
10.631631
10.631631
10.631631
10.631631
9.136265
7.574407
5.87987
4.05752
2.456768
1.841321
1.722254
2.000941
3.492682
4.927328
6.53296
8.6509
10.131659
10.631631
10.631631
10.631631
10.040166
8.547727
6.898926
4.939332
3.364855
2.033384
1.580153
1.610325
2.182623
3.906658
5.535319
7.267812
9.072674
10.630657
10.631631
10.631631
10.631631
9.470442
8.068528
6.487539
4.391362
2.864255
1.949681
1.673589
1.787789
2.883072
4.362163
6.041763
8.01532
9.536952
10.631631
10.631631
10.631631
10.569986
8.951982
7.376175
5.662498
3.827172
2.316938
1.75632
1.646337
1.9672
3.460238
4.881582
6.448282
8.542212
9.953539
10.631631
10.631631
10.631631
9.98793
8.515283
6.850909
4.918892
3.339225
1.989911
1.525
1.529217
2.090809
3.718487
5.30497
7.013128
8.830965
10.346118
10.631631
10.631631
10.631631
9.176496
7.747333
6.139094
4.001069
2.490185
1.507156
1.238202
1.407555
2.332835
3.817115
5.479516
7.373255
8.902991
10.158588
10.523915
10.495688
9.880214
8.245997
6.65138
4.889693
3.028743
1.37933
1.317363
1.482824
1.596699
2.128767
3.496575
5.011681
7.152636
8.575629
9.404579
9.656997
9.513917
8.333596
6.741249
4.999352
2.979753
1.392956
1.360837
1.529866
1.687864
1.810175
1.876684
2.949257
4.53314
6.330187
7.807679
8.29661
8.316401
7.963734
6.355169
4.824806
3.134832
1.15969
1.293355
1.439999
1.577558
1.693704
1.775137
1.793954
1.83905
3.692532
5.170978
6.463855
6.816843
6.724703
6.084265
4.309281
2.707879
1.037379
1.141197
1.301142
1.47082
1.629467
1.759564
1.841645
1.856893
1.832885
2.973265
4.434836
5.217372
5.40522
5.179089
3.999446
2.351328
1.134708
1.249557
1.400093
1.576909
1.752426
1.914642
2.048957
2.122603
2.132336
2.09016
1.979204
2.973589
3.437528
3.442394
2.99046
1.340074
1.272267
1.291084
1.371868
1.498721
1.646662
1.787141
1.902963
1.982124
1.98764
1.939299
1.844889
1.691433
1.524675
1.385818
1.267076
1.112647
1.057169
1.055871
1.098372
1.199595
1.334558
1.475362
1.601566
1.703113
1.759564
1.751129
1.691758
1.577558
1.413395
1.234958
1.069498
0.92837
0.826498
0.792109
0.819036
0.890087
1.015966
1.172991
1.333909
1.468873
1.569447
1.614867
1.602863
1.549981
1.428968
1.271294
1.098696
0.933236
0.805086
0.72268
0.714245
0.750257
0.833311
0.968275
1.124327
1.267401
1.389712
1.475686
1.492232
1.459464
1.385494
1.240149
1.0682
0.901118
0.749608
0.639626
0.584148
0.593881
0.646763
0.758692
0.907606
1.069498
1.222305
1.343967
1.415017
1.416964
1.38225
1.298222
1.162285
0.99942
0.84272
0.709703
0.619186
0.597774
0.625026
0.700619
0.83688
0.998771
1.157419
1.297249
1.409502
1.467575
1.466602
1.418262
1.304062
1.151254
0.990012
0.841422
0.723005
0.650981
0.646114
0.686344
0.782051
0.928694
1.093181
1.255072
1.392307
1.492557
1.523702
1.50456
1.434159
1.291409
1.11654
0.946538
0.81125
0.717814
0.675962
0.693806
0.753501
0.864781
1.009802
1.168125
1.31055
1.423777
1.495476
1.507805
1.466926
1.371543
1.2249
1.060089
0.90566
0.778158
0.682775
0.650981
0.67434
0.742146
0.868674
1.025375
1.179804
1.318012
1.424101
1.476335
1.47082
1.417937
1.296924
1.136979
0.968924
0.814494
0.688939
0.613996
0.607831
0.646763
0.739551
0.881652
1.040299
1.189537
1.314768
1.403662
1.425075
1.399445
1.335532
1.20803
1.055871
0.901118
0.758692
0.642546
0.578633
0.568575
0.611076
0.723329
0.879705
1.051329
1.20511
1.321581
1.396849
1.401716
1.359864
1.258641
1.109727
0.949782
0.795353
0.662985
0.569873
0.538403
0.562411
0.63411
0.763234
0.916366
1.068849
1.207705
1.318012
1.369597
1.361486
1.312821
1.216465
1.094803
0.955946
0.81417
0.686344
0.58285
0.545865
0.578308
0.683748
0.834609
0.986443
1.130815
1.260588
1.355646
1.388089
1.369597
1.289462
1.142495
0.971519
0.804112
0.656496
0.560464
0.537105
0.568575
0.632164
0.734035
0.865106
1.018237
1.17656
1.300168
1.371543
1.391009
1.371868
1.292058
1.152552
0.983199
0.809952
0.661038
0.553327
0.526075
0.56014
0.636706
0.770696
0.92545
1.074364
1.211599
1.320932
1.372841
1.373814
1.333909
1.225225
1.068524
0.905011
0.764532
0.669149
0.61724
0.612049
0.638652
0.69705
0.812223
0.957244
1.104861
1.235607
1.323852
1.345913
1.329367
1.276485
1.162285
1.012722
0.844991
0.690886
0.587717
0.553976
0.570197
0.619186
0.724951
0.871919
1.041272
1.214519
1.365055
1.460438
1.472766
1.414693
1.297573
1.145739
0.97671
0.807681
0.664607
0.566629
0.533861
0.543269
0.60848
0.747986
0.912473
1.072093
1.223927
1.345913
1.405284
1.401067
1.347211
1.230416
1.087017
0.934858
0.79146
0.694779
0.627622
0.614644
0.624053
0.684722
0.815143
0.992932
1.151903
1.303413
1.418262
1.443567
1.414693
1.34494
1.209328
1.037703
0.867377
0.714894
0.599396
0.55138
0.569224
0.627297
0.740199
0.888465
1.055223
1.212247
1.341047
1.431888
1.460113
1.43643
1.344291
1.174289
0.993256
0.838178
0.698348
0.592259
0.566953
0.608156
0.687642
0.822281
0.969573
1.108105
1.247611
1.361811
1.413071
1.411449
1.383872
1.294978
1.160663
0.9965
0.80833
0.657145
0.574415
0.575713
0.632813
0.750581
0.907282
1.057818
1.180453
1.271294
1.346887
1.377383
1.368299
1.30763
1.177533
1.01402
0.841098
0.711001
0.614969
0.568251
0.570197
0.61724
0.732089
0.889114
1.052952
1.203488
1.320932
1.401716
1.417613
1.381925
1.282649
1.129842
0.954973
0.795028
0.68829
0.619835
0.583499
0.583823
0.646114
0.772967
0.91085
1.051654
1.196026
1.331963
1.416964
1.41372
1.352402
1.208679
1.046138
0.885545
0.727547
0.581877
0.497525
0.499796
0.547812
0.636057
0.768101
0.927072
1.085719
1.270321
1.41372
1.46498
1.446812
1.342669
1.164232
0.955298
0.787242
0.666878
0.559167
0.492334
0.478059
0.524128
0.645465
0.80249
0.970221
1.122055
1.242095
1.313795
1.321581
1.283298
1.195377
1.051978
0.884247
0.721382
0.57993
0.507906
0.514071
0.569548
0.643194
0.758368
0.892358
1.029268
1.151903
1.261886
1.318012
1.291084
1.218412
1.103238
0.965031
0.814819
0.667851
0.549758
0.485196
0.478059
0.50888
0.587068
0.725276
0.887816
1.049058
1.208354
1.311848
1.321257
1.290111
1.227171
1.087666
0.928045
0.762585
0.610102
0.496876
0.446913
0.460215
0.518937
0.637355
0.784971
0.946538
1.098372
1.223603
1.304062
1.321257
1.285245
1.175911
1.006558
0.829094
0.676611
0.531266
0.42323
0.415768
0.496551
0.616267
0.752528
0.860888
0.950756
1.05652
1.165205
1.228794
1.269996
1.27908
1.214843
1.075662
0.895602
0.734684
0.583499
0.469299
0.428096
0.446589
0.511475
0.653901
0.845964
1.021482
1.149308
1.235282
1.256695
1.233984
1.170396
1.041921
0.882301
0.72852
0.596476
0.48325
0.419985
0.432963
0.496551
0.623729
0.777185
0.929019
1.09091
1.225225
1.29076
1.289138
1.235931
1.131788
0.987741
0.833636
0.676611
0.534834
0.439451
0.453078
0.541972
0.650332
0.759665
0.86835
0.988714
1.113296
1.21095
1.246313
1.230091
1.181102
1.061387
0.915717
0.759016
0.618213
0.511475
0.458268
0.456646
0.487792
0.587068
0.72852
0.888789
1.044192
1.202515
1.321905
1.366353
1.341371
1.235931
1.091234
0.950756
0.805735
0.661363
0.558518
0.495902
0.488116
0.529643
0.638977
0.787566
0.954649
1.106158
1.234633
1.334558
1.380303
1.343642
1.234633
1.078906
0.933561
0.781078
0.606534
0.485196
0.470921
0.501742
0.571819
0.705485
0.864781
1.018562
1.160663
1.279405
1.337803
1.330989
1.286218
1.190186
1.041272
0.877434
0.723978
0.60848
0.533212
0.536132
0.601992
0.744417
0.91961
1.047761
1.1107
1.207381
1.328394
1.368948
1.342993
1.272916
1.138277
0.987092
0.832987
0.692508
0.562087
0.507906
0.515368
0.578308
0.714569
0.881652
1.042894
1.187266
1.298546
1.363108
1.370895
1.332936
1.256695
1.13925
1.000718
0.855048
0.721707
0.604263
0.560464
0.575064
0.637355
0.767127
0.923828
1.078582
1.241122
1.395876
1.491259
1.49937
1.414044
1.248908
1.071444
0.926099
0.7827
0.654225
0.581877
0.608156
0.686344
0.774265
0.862835
0.993581
1.166503
1.307306
1.396525
1.428319
1.419235
1.355971
1.224251
1.060413
0.89106
0.748959
0.653576
0.631515
0.697374
0.789513
0.919935
1.035432
1.142819
1.25637
1.343642
1.392956
1.407555
1.371868
1.295626
1.163583
0.992607
0.83104
0.702565
0.614644
0.586743
0.605885
0.656496
0.809303
1.00526
1.189862
1.30244
1.341696
1.374788
1.391334
1.361162
1.264805
1.11946
0.960813
0.817414
0.701592
0.608156
0.594205
0.635408
0.712623
0.842071
1.017588
1.186293
1.326772
1.428968
1.464331
1.446163
1.386792
1.258966
1.097723
0.927397
0.785944
0.687966
0.641248
0.652603
0.693481
0.758692
0.890411
1.063333
1.207057
1.316714
1.397822
1.412422
1.382899
1.302764
1.157743
0.988065
0.824227
0.703539
0.63411
0.632488
0.657145
0.709378
0.827796
0.984496
1.151579
1.28784
1.372517
1.416639
1.420857
1.377383
1.277458
1.119784
0.930641
0.760963
0.653576
0.582201
0.584148
0.627297
0.723005
0.86543
1.026348
1.172018
1.294004
1.388089
1.427346
1.413071
1.343642
1.201866
1.037379
0.881327
0.750257
0.641248
0.580904
0.581877
0.630542
0.73728
0.884896
1.027321
1.161312
1.306657
1.456869
1.517862
1.479904
1.348509
1.155796
0.981252
0.835258
0.710027
0.60848
0.568575
0.571819
0.631515
0.763883
0.933561
1.124975
1.302115
1.404635
1.390685
1.339425
1.295302
1.182724
1.039001
0.880678
0.735657
0.641248
0.592583
0.590961
0.625026
0.709054
0.847586
1.005585
1.166503
1.307955
1.416315
1.47082
1.506183
1.465629
1.280703
1.05652
0.870945
0.713272
0.588041
0.531914
0.527372
0.565006
0.677584
0.833311
1.006233
1.174938
1.311848
1.386143
1.385818
1.346887
1.268374
1.133086
0.974115
0.823254
0.695103
0.592908
0.551056
0.583823
0.6685
0.813845
0.966004
1.097074
1.224576
1.332287
1.388089
1.387765
1.346238
1.247286
1.11654
0.958866
0.78854
0.626973
0.534834
0.535159
0.599396
0.700294
0.83688
1.004611
1.160014
1.289138
1.380303
1.417288
1.394254
1.341047
1.219709
1.060738
0.886194
0.723653
0.613671
0.572793
0.575388
0.626
0.726249
0.862186
1.057494
1.282649
1.441296
1.473091
1.417937
1.365055
1.271294
1.131464
0.993581
0.867377
0.724302
0.601667
0.556571
0.576037
0.657145
0.800219
0.958542
1.124002
1.283947
1.388414
1.411124
1.377708
1.349482
1.246313
1.092532
0.929992
0.7827
0.67434
0.626648
0.64287
0.677584
0.757719
0.889438
1.026348
1.153525
1.264481
1.346562
1.377708
1.37641
1.314119
1.175587
1.010127
0.866403
0.754474
0.650332
0.580904
0.582201
0.661363
0.80541
0.954324
1.108429
1.26221
1.4108
1.510076
1.517538
1.477308
1.353051
1.17072
1.000394
0.865754
0.7256
0.60556
0.557869
0.57993
0.653576
0.790162
0.955622
1.121407
1.265454
1.37349
1.426048
1.417613
1.362784
1.251504
1.106158
0.951404
0.805086
0.689264
0.625675
0.626973
0.65455
0.725924
0.864132
1.034783
1.188564
1.306657
1.392956
1.424426
1.408853
1.346887
1.223603
1.067227
0.87711
0.709703
0.604587
0.567602
0.593881
0.657794
0.778482
0.94816
1.135357
1.283298
1.332612
1.366677
1.383223
1.37933
1.325474
1.189862
1.017588
0.847911
0.706459
0.611076
0.584148
0.605236
0.654225
0.772967
0.939076
1.1107
1.274214
1.410475
1.48185
1.472766
1.390036
1.245015
1.079879
0.919286
0.780429
0.664282
0.612373
0.608156
0.639626
0.692832
0.801517
0.966004
1.144441
1.304062
1.414693
1.439674
1.417288
1.381925
1.277134
1.098372
0.893331
0.729493
0.626
0.580579
0.586419
0.636057
0.74539
0.893007
1.057169
1.206083
1.32807
1.405609
1.418586
1.384521
1.29952
1.156121
0.992607
0.843369
0.712947
0.613671
0.581228
0.608156
0.674989
0.806059
0.964382
1.117838
1.254748
1.362784
1.40788
1.394254
1.348509
1.253126
1.101292
0.940374
0.781727
0.649683
0.570197
0.581877
0.648385
0.746364
0.896251
1.06528
1.222954
1.379005
1.486068
1.474064
1.396525
1.288489
1.154174
1.008829
0.861861
0.740199
0.657145
0.614644
0.587068
0.603614
0.738253
0.942969
1.115242
1.254099
1.369597
1.44227
1.439999
1.393605
1.301466
1.167476
1.026997
0.904037
0.781402
0.656496
0.558193
0.559491
0.653901
0.803139
0.966328
1.12238
1.258966
1.36765
1.423777
1.420533
1.374463
1.266428
1.119136
0.957569
0.807357
0.686668
0.609778
0.60264
0.642221
0.724302
0.860239
1.021482
1.171369
1.302115
1.400093
1.431888
1.41372
1.344291
1.204786
1.043219
0.893007
0.781402
0.691859
0.636381
0.628271
0.648061
0.749284
0.904686
1.074364
1.231389
1.351104
1.419235
1.42767
1.39036
1.300168
1.147686
0.974764
0.821632
0.694779
0.606534
0.619186
0.694779
0.778482
0.880354
0.995527
1.119136
1.263832
1.385818
1.442594
1.439025
1.389712
1.277783
1.127571
0.965355
0.815792
0.695428
0.615942
0.60264
0.638328
0.727547
0.86835
1.023753
1.166827
1.297573
1.401391
1.438701
1.419884
1.352078
1.216141
1.049058
0.871919
0.711974
0.631515
0.601667
0.623729
0.677909
0.804437
0.971195
1.089937
1.219385
1.348833
1.425399
1.445189
1.418262
1.335207
1.193755
1.028295
0.86543
0.727547
0.645141
0.622431
0.646439
0.696077
0.809628
0.963084
1.124327
1.266428
1.373166
1.423128
1.420208
1.388089
1.297573
1.145415
0.94816
0.774589
0.663309
0.608156
0.609454
0.650656
0.735009
0.872243
1.030241
1.180129
1.309253
1.403013
1.441296
1.422804
1.354024
1.214519
1.046787
0.878407
0.718138
0.606858
0.568575
0.592908
0.670447
0.78854
0.927072
1.070146
1.196026
1.290436
1.347211
1.357268
1.334234
1.283298
1.198946
1.079231
0.92837
0.782051
0.680504
0.650981
0.691535
0.751555
0.862186
1.006233
1.150281
1.274863
1.383872
1.448434
1.449732
1.409178
1.302115
1.148983
0.975737
0.82001
0.697699
0.607507
0.59161
0.621458
0.686344
0.80833
0.967626
1.124975
1.287191
1.415017
1.460113
1.438052
1.364082
1.241771
1.107456
0.950431
0.799895
0.682126
0.629893
0.636706
0.676611
0.778807
0.92545
1.08507
1.234958
1.354349
1.429292
1.441945
1.408853
1.32223
1.176236
1.009478
0.848884
0.712623
0.615942
0.585121
0.59161
0.624377
0.714894
0.852453
1.020508
1.181102
1.294329
1.363433
1.379005
1.355971
1.242095
1.077608
0.918312
0.775238
0.697699
0.669798
0.663958
0.695752
0.774589
0.907282
1.060089
1.207057
1.334234
1.424426
1.447136
1.395876
1.282649
1.108105
0.920259
0.771994
0.680504
0.588365
0.521208
0.520884
0.591285
0.743119
0.927072
1.096425
1.21387
1.293031
1.339749
1.360837
1.373166
1.324176
1.206083
1.052952
0.8969
0.763559
0.6685
0.636381
0.65455
0.713921
0.834285
0.980279
1.127571
1.262859
1.367975
1.420208
1.412422
1.361811
1.255721
1.101941
0.930965
0.760314
0.632813
0.552678
0.542945
0.586743
0.668825
0.794704
0.944916
1.085395
1.20803
1.32223
1.40204
1.398796
1.319634
1.168774
1.012398
0.865106
0.732089
0.619835
0.553976
0.541323
0.581552
0.670771
0.799246
1.001367
1.171369
1.290436
1.379654
1.416315
1.39328
1.314443
1.174289
1.006882
0.848884
0.723329
0.616915
0.570846
0.581228
0.632164
0.746688
0.894629
1.040623
1.182724
1.315741
1.405284
1.42183
1.378357
1.262859
1.108754
0.945889
0.790162
0.661363
0.578633
0.565655
0.600694
0.686668
0.824552
0.980928
1.130491
1.260588
1.357593
1.393605
1.37641
1.314768
1.187266
1.030241
0.87127
0.727871
0.613347
0.554949
0.559167
0.604587
0.710676
0.85667
1.013695
1.160663
1.279405
1.357917
1.372841
1.340398
1.255397
1.115242
0.954324
0.804112
0.675638
0.577659
0.547487
0.567926
0.635084
0.756745
0.905011
1.05652
1.198297
1.306657
1.353051
1.326123
1.244366
1.11946
0.985794
0.870297
0.76583
0.66266
0.585446
0.569548
0.601667
0.682126
0.81709
0.971519
1.119784
1.247611
1.341047
1.373166
1.354349
1.292382
1.16488
1.006882
0.844018
0.703863
0.598423
0.546838
0.55138
0.59745
0.703863
0.84856
1.008829
1.158716
1.286867
1.36765
1.383223
1.350455
1.264481
1.119136
0.959515
0.805086
0.672393
0.575064
0.544243
0.566304
0.630542
0.755772
0.908904
1.064956
1.209652
1.321581
1.377708
1.372192
1.320932
1.208354
1.061062
0.904037
0.754799
0.634435
0.558518
0.555273
0.596152
0.682775
0.815468
0.96795
1.11946
1.253126
1.352402
1.386792
1.367326
1.302115
1.172342
1.016291
0.866403
0.73144
0.622431
0.567926
0.572468
0.617889
0.723329
0.868999
1.025375
1.17072
1.289462
1.364406
1.377708
1.345913
1.257668
1.111025
0.951404
0.798597
0.659416
0.565331
0.546514
0.572144
0.638328
0.761612
0.92253
1.092208
1.247286
1.360188
1.41372
1.406907
1.359864
1.250855
1.099994
0.937778
0.788864
0.661038
0.58285
0.569548
0.60264
0.685046
0.822605
0.979954
1.129193
1.257019
1.353051
1.38517
1.366353
1.301466
1.17072
1.004611
0.831365
0.67434
0.548136
0.489738
0.530292
0.618213
0.748959
0.901766
1.054574
1.191159
1.301142
1.372841
1.381925
1.343318
1.259615
1.127246
0.968924
0.821632
0.684397
0.580904
0.546838
0.567926
0.631515
0.758368
0.907606
1.055547
1.193106
1.306982
1.366677
1.367326
1.325474
1.223603
1.077933
0.914095
0.760314
0.635084
0.555922
0.544243
0.57993
0.664607
0.801841
0.959515
1.111349
1.243393
1.338776
1.369272
1.334234
1.248908
1.111998
0.941023
0.795028
0.696077
0.60848
0.557869
0.559816
0.603938
0.706783
0.850182
1.005909
1.15093
1.27097
1.348184
1.361162
1.326447
1.2395
1.095777
0.933561
0.777509
0.641572
0.54035
0.504662
0.519586
0.577984
0.702241
0.857968
1.015317
1.155796
1.260588
1.309901
1.305035
1.25345
1.149308
1.003314
0.844342
0.689913
0.563384
0.491685
0.492009
0.538079
0.627946
0.764207
0.917015
1.066253
1.194079
1.292058
1.324825
1.306657
1.24242
1.11362
0.956271
0.796002
0.65455
0.540674
0.487467
0.4972
0.547163
0.654225
0.796651
0.954324
1.103238
1.226847
1.308928
1.324501
1.291733
1.20511
1.060413
0.896251
0.741822
0.606209
0.509204
0.471246
0.495902
0.555922
0.685046
0.836556
0.98547
1.115567
1.213221
1.263508
1.267076
1.241446
1.158716
1.019535
0.85959
0.707756
0.580904
0.500445
0.487467
0.522181
0.605885
0.744417
0.904686
1.059765
1.191484
1.289138
1.323203
1.306008
1.244366
1.116865
0.960489
0.803139
0.661687
0.553976
0.501418
0.507258
0.556571
0.664931
0.811574
0.973466
1.124327
1.247611
1.330016
1.346562
1.313795
1.231713
1.092208
0.930316
0.780105
0.646439
0.54035
0.503364
0.515368
0.574415
0.701917
0.878732
1.058142
1.206083
1.317688
1.371219
1.367326
1.320932
1.212896
1.069173
0.903064
0.753177
0.630866
0.553327
0.541647
0.577659
0.663958
0.804761
0.96276
1.114594
1.245015
1.343642
1.379654
1.362784
1.297573
1.168125
1.010127
0.853426
0.715543
0.603289
0.547812
0.554949
0.606209
0.71684
0.865754
1.025699
1.175587
1.297897
1.377059
1.391983
1.357917
1.273565
1.133735
0.972492
0.825525
0.698672
0.603614
0.573117
0.596476
0.662985
0.791135
0.946214
1.104212
1.248584
1.361811
1.419884
1.422155
1.378357
1.271943
1.123678
0.962435
0.813521
0.69121
0.610102
0.596801
0.631515
0.715543
0.851804
1.012073
1.163907
1.297897
1.401716
1.439025
1.424426
1.36473
1.240473
1.084097
0.924477
0.781402
0.672393
0.618213
0.622431
0.664282
0.764532
0.900469
1.047436
1.185969
1.307306
1.398147
1.424426
1.418586
1.35662
1.230416
1.074688
0.918312
0.780105
0.67434
0.635408
0.650007
0.709703
0.830716
0.981577
1.133411
1.271943
1.380952
1.434159
1.429941
1.379654
1.26805
1.112971
0.95108
0.798273
0.675313
0.59453
0.582526
0.618213
0.702565
0.842071
1.000069
1.152228
1.284271
1.381925
1.415342
1.396525
1.333261
1.202515
1.043543
0.881976
0.738577
0.626324
0.569224
0.576362
0.625351
0.731115
0.880354
1.039325
1.187915
1.308279
1.384845
1.399769
1.365379
1.279729
1.137304
0.975737
0.821307
0.68829
0.589663
0.557869
0.578633
0.643194
0.769398
0.922206
1.076959
1.217114
1.327421
1.383223
1.379979
1.331638
1.221332
1.070795
0.907931
0.754799
0.632164
0.553976
0.541323
0.577335
0.663309
0.802166
0.962435
1.115242
1.246962
1.343967
1.377708
1.358891
1.293355
1.160338
0.998123
0.832338
0.684073
0.575064
0.521208
0.533537
0.599072
0.716192
0.862835
1.01986
1.166178
1.284271
1.360513
1.369597
1.330016
1.238851
1.092532
0.927397
0.780753
0.662011
0.572144
0.541647
0.561762
0.62308
0.747013
0.902091
1.062036
1.203163
1.314119
1.368948
1.364082
1.314443
1.204137
1.052303
0.886194
0.732738
0.606209
0.527048
0.516017
0.552029
0.643843
0.788864
0.954324
1.110052
1.240149
1.335532
1.367326
1.346238
1.280378
1.15093
0.993256
0.832662
0.688615
0.57409
0.517639
0.51991
0.567277
0.672069
0.814819
0.971844
1.125949
1.261886
1.359539
1.383223
1.356295
1.27097
1.132113
0.964057
0.805735
0.669149
0.568575
0.538079
0.553976
0.616915
0.743444
0.895927
1.052627
1.19635
1.308604
1.364406
1.357917
1.310226
1.191808
1.040623
0.877758
0.731764
0.623404
0.553651
0.544567
0.579281
0.663634
0.803139
0.962435
1.114269
1.24534
1.342993
1.376734
1.357268
1.29368
1.164232
1.006882
0.847262
0.703539
0.590637
0.533212
0.536781
0.584797
0.691859
0.836556
0.998771
1.15677
1.285893
1.369921
1.386467
1.3537
1.267076
1.124002
0.961462
0.805735
0.671096
0.571819
0.536781
0.555273
0.618213
0.744093
0.899495
1.056196
1.198946
1.316714
1.375112
1.367001
1.319959
1.206732
1.0536
0.887816
0.735982
0.608805
0.528021
0.513746
0.547163
0.629893
0.75999
0.910202
1.052627
1.17656
1.268374
1.305684
1.294329
1.24534
1.126273
0.972492
0.812223
0.663309
0.544243
0.484872
0.486818
0.532888
0.638652
0.783998
0.940698
1.087017
1.20511
1.281676
1.29368
1.255397
1.164232
1.014344
0.846289
0.682775
0.546838
0.455024
0.433936
0.462162
0.529968
0.656496
0.80833
0.960489
1.100643
1.209976
1.263183
1.258966
1.212247
1.102914
0.951404
0.786593
0.632813
0.507582
0.422905
0.406684
0.434909
0.517315
0.650332
0.809952
0.966977
1.105834
1.206408
1.242095
1.231389
1.176236
1.049383
0.8969
0.742795
0.597774
0.478708
0.425176
0.431341
0.480005
0.589988
0.737604
0.897549
1.046787
1.169098
1.245664
1.260588
1.234958
1.156445
1.020184
0.860888
0.706459
0.571171
0.471895
0.439451
0.461188
0.524777
0.650981
0.804112
0.960489
1.101941
1.212572
1.269996
1.27097
1.225225
1.117189
0.966977
0.805086
0.654225
0.530941
0.455673
0.441074
0.478059
0.563709
0.703863
0.864132
1.017913
1.153201
1.251179
1.285245
1.265779
1.201217
1.072742
0.915717
0.759341
0.618862
0.50888
0.453726
0.457295
0.507258
0.613347
0.758043
0.917015
1.069173
1.20219
1.293031
1.312172
1.280378
1.196675
1.060413
0.901766
0.742146
0.606534
0.509204
0.479681
0.501418
0.567602
0.69705
0.851804
1.008829
1.15093
1.261886
1.318661
1.315092
1.263508
1.150605
0.997149
0.833311
0.68018
0.558842
0.492334
0.488441
0.526723
0.616915
0.760963
0.921557
1.068524
1.198297
1.296275
1.330016
1.31347
1.257992
1.136006
0.980279
0.823903
0.685371
0.57409
0.517964
0.521208
0.568575
0.672393
0.816441
0.972817
1.121082
1.244042
1.327421
1.349158
1.322554
1.239824
1.097399
0.934534
0.778158
0.644168
0.548136
0.517964
0.539701
0.604587
0.731115
0.885869
1.042894
1.184995
1.296924
1.352078
1.349482
1.302115
1.192782
1.041596
0.875812
0.721382
0.59745
0.518288
0.503364
0.542296
0.641248
0.791784
0.960164
1.116865
1.246962
1.341696
1.374463
1.356944
1.293355
1.162934
1.00526
0.84564
0.701917
0.58869
0.533537
0.537754
0.583175
0.686993
0.830067
0.986119
1.134059
1.258317
1.349482
1.374788
1.345264
1.25929
1.113945
0.949458
0.790486
0.656821
0.559491
0.526723
0.549434
0.61724
0.744417
0.898198
1.054898
1.194728
1.301791
1.362135
1.364406
1.318661
1.213221
1.065604
0.904037
0.754799
0.631515
0.552029
0.539701
0.573766
0.658118
0.795677
0.955298
1.108429
1.239175
1.336829
1.370246
1.352726
1.291084
1.162934
1.005585
0.845315
0.700294
0.586094
0.528995
0.537754
0.589014
0.696726
0.84564
1.012398
1.166178
1.288165
1.364082
1.37641
1.339425
1.252477
1.108429
0.943294
0.786918
0.65455
0.562411
0.532239
0.552678
0.622106
0.751879
0.908904
1.066253
1.207057
1.317363
1.374463
1.373814
1.325474
1.216465
1.065929
0.903389
0.75123
0.627622
0.548785
0.538403
0.572468
0.65974
0.79957
0.958542
1.111998
1.243393
1.34202
1.376086
1.359539
1.294978
1.164556
1.007531
0.84564
0.699646
0.586094
0.523155
0.525101
0.568575
0.680504
0.832014
1.007856
1.172018
1.299195
1.376734
1.389063
1.3537
1.273565
1.135033
0.972492
0.816441
0.681477
0.580579
0.544243
0.559491
0.619835
0.74539
0.901442
1.061711
1.212896
1.335532
1.3962
1.392956
1.342669
1.231713
1.079555
0.917015
0.766154
0.643519
0.564682
0.552678
0.587068
0.670771
0.806708
0.965031
1.117513
1.252153
1.355646
1.393929
1.377059
1.313146
1.182724
1.024726
0.861537
0.713272
0.596801
0.538079
0.54846
0.604263
0.71976
0.87127
1.032188
1.183373
1.304062
1.377708
1.389387
1.353375
1.267076
1.125624
0.961462
0.80249
0.663309
0.569873
0.551056
0.588041
0.663634
0.792433
0.944916
1.099021
1.234309
1.342345
1.397822
1.394254
1.345589
1.237229
1.086692
0.925774
0.77394
0.650656
0.571171
0.558842
0.593881
0.677584
0.815468
0.975088
1.127571
1.260263
1.357268
1.39036
1.371868
1.307955
1.178831
1.01986
0.858941
0.713596
0.599396
0.546514
0.555598
0.611725
0.725924
0.875487
1.034459
1.182075
1.304711
1.381925
1.395876
1.362784
1.278432
1.136006
0.975088
0.819036
0.686019
0.588365
0.553976
0.57701
0.640923
0.768749
0.928694
1.08799
1.231065
1.341371
1.398471
1.395876
1.348509
1.240149
1.089937
0.929992
0.778482
0.649683
0.564358
0.544892
0.572144
0.653901
0.807357
0.979306
1.13925
1.276809
1.374463
1.41372
1.40204
1.340722
1.216141
1.05944
0.904362
0.761612
0.645465
0.58577
0.586419
0.632164
0.738253
0.884896
1.043543
1.197648
1.324176
1.405609
1.418586
1.384845
1.301142
1.159041
0.9965
0.840124
0.706134
0.608805
0.57701
0.596801
0.661363
0.787242
0.941023
1.095777
1.239175
1.352078
1.408204
1.405933
1.358891
1.25053
1.100319
0.939076
0.788864
0.66558
0.588365
0.576362
0.609129
0.694455
0.831689
0.987092
1.140873
1.271294
1.368299
1.401067
1.382574
1.318012
1.187266
1.028619
0.869972
0.724627
0.611076
0.556247
0.559167
0.604587
0.711649
0.866403
1.03381
1.189862
1.317039
1.401391
1.419235
1.386467
1.298546
1.153201
0.989363
0.831689
0.69705
0.598747
0.569548
0.592259
0.655198
0.778807
0.932263
1.086692
1.224576
1.335207
1.39328
1.389387
1.339425
1.235607
1.089612
0.92545
0.765505
0.639301
0.560789
0.550731
0.586743
0.676611
0.830067
1.002989
1.168774
1.303413
1.396525
1.426048
1.404311
1.338776
1.208354
1.050681
0.892682
0.747986
0.636057
0.57993
0.583823
0.632488
0.739226
0.884247
1.042894
1.191808
1.313795
1.392632
1.407555
1.37641
1.292058
1.149957
0.988065
0.832662
0.700294
0.603289
0.570522
0.591285
0.65455
0.780429
0.93421
1.090261
1.232687
1.345264
1.403338
1.403987
1.359215
1.252153
1.100643
0.938752
0.786593
0.661038
0.579281
0.564033
0.596476
0.677909
0.816441
0.977683
1.127246
1.25637
1.351429
1.387441
1.380628
1.335532
1.218412
1.059116
0.896251
0.746039
0.626973
0.568575
0.570846
0.621133
0.737928
0.888465
1.046138
1.191808
1.310875
1.389063
1.39912
1.367001
1.282649
1.140873
0.978332
0.823254
0.689588
0.59161
0.558518
0.577659
0.63995
0.762261
0.914095
1.067227
1.206732
1.318012
1.376734
1.378357
1.332287
1.223927
1.074364
0.908579
0.759016
0.637355
0.558193
0.544243
0.580255
0.672718
0.812872
0.970221
1.120109
1.249557
1.343967
1.377383
1.358566
1.2966
1.169747
1.009802
0.846937
0.69121
0.570846
0.509529
0.518288
0.58869
0.722031
0.879381
1.038677
1.183373
1.302115
1.375112
1.388414
1.353375
1.267725
1.124651
0.962435
0.806384
0.670771
0.573117
0.54035
0.559167
0.622106
0.745715
0.897224
1.050356
1.190835
1.304062
1.365704
1.37057
1.329367
1.22198
1.070795
0.906308
0.752852
0.626648
0.546189
0.53159
0.565655
0.652927
0.796002
0.958218
1.110376
1.243393
1.343318
1.377059
1.35662
1.29076
1.160338
1.00818
0.857319
0.718787
0.610102
0.556896
0.565331
0.613022
0.718138
0.861861
1.019535
1.167476
1.289462
1.369921
1.384845
1.352402
1.267725
1.127246
0.965679
0.810601
0.676935
0.578957
0.546838
0.566629
0.629568
0.755123
0.908904
1.063009
1.202839
1.31347
1.365379
1.35662
1.304386
1.194404
1.04841
0.89398
0.756745
0.646114
0.577984
0.569873
0.606534
0.684073
0.816765
0.971844
1.124651
1.25637
1.352402
1.386467
1.37057
1.31055
1.18532
1.027646
0.86543
0.718787
0.604587
0.547812
0.55138
0.598423
0.704512
0.852128
1.012398
1.159041
1.279405
1.356944
1.371543
1.338127
1.261237
1.126922
0.966653
0.810277
0.676935
0.577984
0.543269
0.565006
0.63119
0.759016
0.913122
1.070795
1.213221
1.326123
1.38225
1.377383
1.330341
1.222954
1.076311
0.914095
0.763234
0.637679
0.558518
0.545541
0.578308
0.661038
0.799246
0.961137
1.115567
1.248908
1.350131
1.387441
1.369272
1.306333
1.177533
1.020833
0.861861
0.71976
0.604263
0.548136
0.552678
0.601343
0.70873
0.859266
1.01986
1.169423
1.289787
1.368624
1.380952
1.345913
1.261561
1.117189
0.954324
0.804437
0.682126
0.588365
0.554949
0.572793
0.632164
0.755772
0.910202
1.069822
1.213545
1.324825
1.384521
1.385818
1.3391
1.233984
1.088639
0.927072
0.773616
0.649683
0.571171
0.557544
0.591285
0.673367
0.809952
0.970546
1.123029
1.254748
1.354024
1.390036
1.373814
1.309577
1.180453
1.021482
0.860239
0.718787
0.60848
0.550083
0.550731
0.60264
0.713596
0.858617
1.018562
1.172342
1.301791
1.38517
1.39912
1.366677
1.277134
1.133411
0.971519
0.818712
0.685046
0.587717
0.552678
0.572793
0.630866
0.751555
0.902091
1.058791
1.206083
1.328394
1.392632
1.394578
1.347536
1.239175
1.089288
0.926423
0.772643
0.646114
0.564358
0.549434
0.582201
0.666553
0.808979
0.972492
1.127246
1.257668
1.356944
1.39328
1.376734
1.313146
1.187266
1.031539
0.870621
0.724951
0.610102
0.55138
0.555273
0.60556
0.711649
0.85667
1.01402
1.165205
1.291733
1.381925
1.403013
1.372841
1.285893
1.143792
0.980928
0.823254
0.687317
0.587717
0.553651
0.572144
0.633786
0.761288
0.917015
1.073391
1.213545
1.327745
1.386792
1.387116
1.341047
1.233336
1.085719
0.926099
0.776211
0.652279
0.571819
0.556247
0.588365
0.666229
0.803139
0.963733
1.114269
1.245015
1.346887
1.388414
1.378357
1.318337
1.194404
1.036406
0.876136
0.733062
0.620484
0.565006
0.568575
0.616591
0.722356
0.866403
1.023104
1.168774
1.286867
1.363433
1.375761
1.342345
1.264157
1.125949
0.966004
0.81709
0.685695
0.58869
0.555922
0.574415
0.636381
0.763883
0.916041
1.071444
1.211274
1.322554
1.376086
1.376086
1.330665
1.221656
1.071769
0.908904
0.755448
0.634759
0.557869
0.552029
0.59161
0.673367
0.805735
0.963733
1.112971
1.241446
1.338127
1.372517
1.353051
1.29368
1.17364
1.022455
0.864781
0.720085
0.605236
0.547487
0.549758
0.600369
0.708081
0.855697
1.015317
1.163907
1.285569
1.365704
1.380303
1.347536
1.264157
1.12238
0.962111
0.808006
0.67434
0.578308
0.546189
0.566953
0.629893
0.755123
0.908579
1.063658
1.203163
1.311199
1.365055
1.360513
1.317363
1.209976
1.068524
0.910202
0.76291
0.643194
0.563709
0.553651
0.59453
0.679531
0.818387
0.974439
1.124651
1.253775
1.352078
1.389712
1.371219
1.309253
1.1824
1.026348
0.868026
0.723653
0.615618
0.5543
0.559491
0.607507
0.714569
0.861212
1.022131
1.172991
1.294653
1.37349
1.387116
1.352078
1.266428
1.124651
0.963084
0.810277
0.679531
0.584472
0.553327
0.57409
0.636706
0.761612
0.915393
1.07404
1.215492
1.326123
1.382574
1.379979
1.333261
1.225874
1.075662
0.915068
0.76583
0.642221
0.566304
0.554949
0.590312
0.673691
0.810601
0.968599
1.120109
1.251504
1.349158
1.384521
1.364082
1.300817
1.17364
1.022779
0.867377
0.724627
0.612049
0.556896
0.562735
0.607831
0.717489
0.86251
1.020184
1.167476
1.28784
1.369272
1.384845
1.351753
1.263183
1.129193
0.971519
0.818063
0.681153
0.57993
0.541972
0.555273
0.613996
0.745715
0.908904
1.075986
1.232038
1.351104
1.411449
1.406907
1.355322
1.244042
1.091883
0.927721
0.777509
0.654225
0.574739
0.561438
0.592259
0.672718
0.809952
0.972168
1.127246
1.260263
1.363433
1.400418
1.383223
1.318661
1.189213
1.031539
0.871919
0.728195
0.616591
0.559816
0.564358
0.613671
0.718463
0.863808
1.021806
1.169423
1.293031
1.370895
1.387116
1.35662
1.275512
1.134384
0.973141
0.818387
0.684073
0.588365
0.55138
0.571495
0.63411
0.758368
0.912148
1.072742
1.217763
1.328394
1.383872
1.379979
1.330665
1.222305
1.077608
0.918637
0.768425
0.644817
0.566953
0.55722
0.59453
0.677584
0.81417
0.972492
1.124975
1.25637
1.353051
1.386792
1.368624
1.308928
1.1824
1.031215
0.872892
0.727871
0.612373
0.552678
0.555273
0.602965
0.706783
0.849857
1.015317
1.168449
1.288489
1.363757
1.381276
1.355971
1.275187
1.133086
0.969573
0.809303
0.67142
0.571819
0.549109
0.586743
0.657145
0.78562
0.935183
1.086368
1.224576
1.333261
1.387765
1.386143
1.338776
1.233984
1.086368
0.925125
0.774589
0.652603
0.574739
0.561438
0.592583
0.673367
0.807032
0.96276
1.111998
1.247611
1.351104
1.389063
1.375112
1.31347
1.182075
1.026997
0.871919
0.73144
0.619186
0.565006
0.572793
0.622106
0.726898
0.871594
1.030241
1.176884
1.298546
1.378357
1.3962
1.369597
1.289462
1.149308
0.987741
0.832987
0.69997
0.601667
0.568251
0.589663
0.651954
0.777834
0.931614
1.087666
1.228794
1.338776
1.396525
1.394578
1.349158
1.243393
1.094479
0.933236
0.780429
0.660065
0.581228
0.568251
0.600694
0.682126
0.815468
0.97087
1.123353
1.25345
1.354024
1.402689
1.393929
1.332287
1.206732
1.050681
0.888465
0.743119
0.628271
0.568251
0.573117
0.62308
0.732413
0.881976
1.04257
1.190511
1.314443
1.398796
1.418586
1.386143
1.301791
1.158716
0.995852
0.839476
0.704836
0.606858
0.571819
0.590637
0.651305
0.774589
0.925774
1.079555
1.221332
1.335856
1.398147
1.397174
1.348833
1.241122
1.092857
0.932263
0.782376
0.658767
0.574739
0.558842
0.596152
0.681153
0.817414
0.979306
1.13925
1.272916
1.369272
1.401716
1.380952
1.316714
1.187915
1.027321
0.868026
0.730467
0.623729
0.565006
0.569548
0.618862
0.725276
0.869323
1.028295
1.178182
1.297249
1.375112
1.387441
1.356295
1.27389
1.132437
0.970546
0.815143
0.680504
0.581877
0.547812
0.566304
0.627946
0.75123
0.902415
1.057494
1.198297
1.308928
1.365704
1.364082
1.317363
1.210625
1.061387
0.900793
0.751555
0.627622
0.545541
0.529643
0.560789
0.639301
0.771994
0.924152
1.069498
1.193106
1.286218
1.321581
1.301466
1.235282
1.106483
0.951729
0.804761
0.67142
0.559816
0.499796
0.500769
0.545865
0.650007
0.792757
0.947511
1.093181
1.212247
1.290436
1.304711
1.270645
1.184346
1.040299
0.876785
0.721058
0.586094
0.489414
0.46281
0.484547
0.544567
0.665905
0.822281
0.98839
1.133735
1.250206
1.313795
1.313146
1.267076
1.160338
1.012398
0.851804
0.701268
0.578957
0.502716
0.489738
0.523479
0.608156
0.746039
0.902415
1.054574
1.18824
1.285569
1.322554
1.304062
1.238851
1.109727
0.957893
0.808979
0.676286
0.577335
0.528995
0.534834
0.579281
0.682451
0.826498
0.984496
1.131464
1.25345
1.332936
1.351429
1.316066
1.232362
1.092208
0.93129
0.777185
0.644168
0.546838
0.513097
0.534834
0.598423
0.723329
0.876136
1.03089
1.173316
1.287516
1.343967
1.341696
1.296275
1.190511
1.041921
0.881652
0.733386
0.611725
0.53451
0.520235
0.555273
0.637679
0.774265
0.932263
1.084421
1.214843
1.317363
1.357593
1.339425
1.275187
1.150605
0.998771
0.842071
0.701917
0.595827
0.541647
0.548136
0.595827
0.698348
0.841422
1.000394
1.146063
1.263508
1.341696
1.356295
1.325799
1.256046
1.126273
0.966328
0.809628
0.67434
0.579281
0.546838
0.565006
0.626
0.750581
0.904686
1.061387
1.206083
1.318661
1.373166
1.367326
1.318337
1.209328
1.062684
0.91085
0.766803
0.647412
0.572144
0.558518
0.590312
0.671096
0.807032
0.962435
1.114594
1.246313
1.343642
1.37933
1.361486
1.300168
1.175262
1.020508
0.861212
0.71684
0.607183
0.554625
0.559816
0.607183
0.711325
0.856346
1.016615
1.165529
1.287191
1.367326
1.383223
1.352078
1.269347
1.131464
0.973466
0.818712
0.685695
0.588365
0.5543
0.572144
0.631839
0.755123
0.90566
1.067875
1.216465
1.329692
1.386143
1.383223
1.335532
1.229442
1.080204
0.917015
0.76291
0.635084
0.552678
0.535808
0.569548
0.655847
0.809303
0.984172
1.140548
1.271294
1.366677
1.398147
1.377383
1.317363
1.192457
1.035432
0.878407
0.733386
0.617889
0.558518
0.560789
0.606858
0.711649
0.857968
1.018237
1.171694
1.301791
1.387441
1.403662
1.370895
1.286218
1.141197
0.974115
0.814494
0.67726
0.57701
0.547487
0.575713
0.643519
0.766478
0.917015
1.072742
1.214519
1.32515
1.380628
1.377059
1.32807
1.221007
1.07112
0.911824
0.763883
0.63995
0.556896
0.54035
0.571171
0.653252
0.79146
0.952702
1.111349
1.245664
1.344291
1.377059
1.359215
1.297897
1.172342
1.015966
0.856022
0.712947
0.601667
0.546514
0.553651
0.601992
0.704512
0.849857
1.009478
1.161636
1.280703
1.361486
1.377383
1.345589
1.264157
1.124327
0.963733
0.80833
0.675638
0.573766
0.542296
0.560464
0.622431
0.742795
0.894629
1.054249
1.197324
1.316066
1.381601
1.382899
1.335856
1.227171
1.078257
0.917339
0.76583
0.643194
0.564358
0.551705
0.585446
0.667202
0.80249
0.959191
1.108754
1.238526
1.338127
1.374139
1.357593
1.297897
1.173965
1.020508
0.865106
0.723329
0.60848
0.549434
0.551705
0.602965
0.716192
0.862835
1.020184
1.166503
1.286218
1.362459
1.374463
1.341371
1.257343
1.117513
0.955622
0.808655
0.680828
0.585121
0.553976
0.574739
0.638004
0.762585
0.915068
1.069822
1.209328
1.319634
1.37641
1.372192
1.323528
1.214843
1.063333
0.903389
0.759016
0.640923
0.561438
0.551056
0.579606
0.65974
0.795677
0.953351
1.104212
1.235931
1.334234
1.370895
1.353051
1.289787
1.160338
1.002016
0.841422
0.696401
0.581877
0.525101
0.531914
0.589014
0.700943
0.847586
1.003314
1.148983
1.267076
1.34494
1.362459
1.332936
1.249233
1.10778
0.950431
0.801193
0.667851
0.566629
0.53159
0.550407
0.6114
0.736631
0.891709
1.046787
1.186293
1.297573
1.354349
1.3537
1.307955
1.20219
1.053925
0.89106
0.742146
0.618862
0.536132
0.516991
0.544892
0.622755
0.760314
0.92253
1.085719
1.234309
1.341696
1.377383
1.358242
1.293031
1.163583
1.007531
0.847911
0.705485
0.593881
0.535159
0.536781
0.581552
0.685046
0.829094
0.986767
1.132113
1.249557
1.327421
1.341371
1.309577
1.230416
1.099994
0.951729
0.802815
0.667202
0.562411
0.524128
0.540998
0.603289
0.730467
0.883598
1.041272
1.183698
1.295951
1.353051
1.351104
1.304711
1.199595
1.050356
0.887491
0.73436
0.60848
0.524777
0.509853
0.545865
0.633461
0.777185
0.940698
1.092208
1.222629
1.318661
1.356295
1.336505
1.274538
1.147361
0.991634
0.832338
0.688615
0.575064
0.519586
0.524128
0.570846
0.678557
0.822605
0.97963
1.1253
1.246313
1.324501
1.338451
1.308928
1.22782
1.086692
0.926423
0.774265
0.641248
0.545216
0.51472
0.539052
0.602316
0.723978
0.873541
1.026673
1.167476
1.283947
1.342669
1.34202
1.2966
1.189537
1.039325
0.877434
0.73144
0.608805
0.528346
0.513097
0.54846
0.628919
0.762585
0.917015
1.066902
1.197324
1.296275
1.340722
1.331638
1.274538
1.147686
0.991958
0.832338
0.686993
0.571819
0.517964
0.524777
0.570197
0.673367
0.813845
0.971844
1.118162
1.242095
1.323852
1.336505
1.301466
1.220034
1.078257
0.914744
0.75707
0.624377
0.534185
0.50596
0.529319
0.596476
0.725924
0.889762
1.047761
1.186942
1.295626
1.351429
1.347536
1.301142
1.194404
1.044192
0.881327
0.730791
0.604911
0.52575
0.513097
0.546189
0.626324
0.769398
0.925125
1.076959
1.212572
1.312497
1.348509
1.330016
1.26805
1.141197
0.985794
0.826498
0.6831
0.570522
0.512773
0.515368
0.562735
0.667202
0.81125
0.969897
1.117838
1.240149
1.320608
1.33618
1.306008
1.224576
1.08507
0.924477
0.764532
0.63411
0.532239
0.497849
0.516666
0.579281
0.702241
0.860239
1.01986
1.160987
1.270321
1.325474
1.324825
1.284271
1.1824
1.035757
0.875163
0.726898
0.601667
0.522506
0.509853
0.540674
0.619511
0.753177
0.907606
1.058467
1.197648
1.301466
1.3391
1.320283
1.255397
1.124651
0.964057
0.800868
0.666878
0.571819
0.523804
0.526075
0.5689
0.67142
0.812872
0.967302
1.117189
1.246313
1.331963
1.348509
1.315417
1.23074
1.088963
0.927397
0.772967
0.639301
0.54035
0.504987
0.521857
0.582201
0.704836
0.855373
1.009802
1.15093
1.263508
1.324176
1.32515
1.281027
1.175262
1.027321
0.867052
0.718463
0.593232
0.514071
0.499471
0.532239
0.613671
0.749284
0.905335
1.058467
1.190511
1.288489
1.326123
1.312821
1.246637
1.121407
0.967302
0.809952
0.668176
0.556247
0.50012
0.504338
0.551056
0.654874
0.798922
0.957244
1.106483
1.228469
1.308604
1.324825
1.291733
1.209328
1.068849
0.906308
0.751879
0.624053
0.526723
0.494605
0.516666
0.57701
0.700619
0.850182
1.005585
1.150605
1.263832
1.323852
1.329043
1.288165
1.183049
1.032837
0.867052
0.713272
0.587068
0.506284
0.493307
0.533861
0.620484
0.754799
0.907282
1.061062
1.196999
1.298222
1.339749
1.323852
1.266103
1.140873
0.985794
0.830067
0.68829
0.574415
0.515693
0.519262
0.566304
0.671096
0.811899
0.96795
1.11362
1.23658
1.318012
1.334558
1.302764
1.220358
1.079879
0.919286
0.764207
0.63119
0.535159
0.50012
0.51991
0.584797
0.711649
0.866728
1.025375
1.167151
1.278107
1.335856
1.33618
1.29076
1.18532
1.03673
0.876136
0.726573
0.602965
0.523479
0.509529
0.543918
0.624702
0.760639
0.917664
1.069498
1.200244
1.299195
1.33618
1.320608
1.261561
1.137304
0.982874
0.827796
0.684073
0.572468
0.515693
0.519586
0.567602
0.669473
0.814494
0.972492
1.121082
1.24242
1.322879
1.338776
1.306982
1.225225
1.088315
0.929019
0.772967
0.638977
0.541647
0.508555
0.529643
0.592908
0.713921
0.865106
1.030566
1.181102
1.296924
1.357593
1.354997
1.312497
1.206408
1.057494
0.897224
0.747337
0.622431
0.543918
0.530941
0.564358
0.643843
0.777185
0.932912
1.083448
1.214843
1.313795
1.351753
1.341371
1.282325
1.154174
0.9965
0.841098
0.701917
0.589988
0.533861
0.539701
0.586419
0.686993
0.832662
0.993581
1.141521
1.263183
1.342669
1.357917
1.326123
1.246962
1.109403
0.950107
0.796651
0.665256
0.566304
0.531914
0.549109
0.609454
0.733062
0.883923
1.039001
1.180453
1.292707
1.351429
1.35078
1.305359
1.200892
1.052952
0.890736
0.740199
0.614969
0.535483
0.528346
0.56598
0.646763
0.783024
0.941023
1.095128
1.228794
1.327745
1.363433
1.345913
1.283298
1.157094
1.001367
0.847911
0.70873
0.596476
0.538403
0.542296
0.588041
0.690886
0.833311
0.989039
1.133086
1.252477
1.328718
1.338127
1.302764
1.223927
1.091559
0.937454
0.791784
0.678882
0.597774
0.570197
0.587068
0.644817
0.763559
0.911175
1.064631
1.204461
1.315092
1.373814
1.374788
1.328394
1.222954
1.074364
0.911499
0.760314
0.636706
0.55722
0.542296
0.577659
0.658443
0.792757
0.949458
1.101292
1.232362
1.334558
1.375437
1.360837
1.300168
1.17072
1.020508
0.861537
0.71684
0.602965
0.548136
0.556247
0.602965
0.706459
0.849533
1.007207
1.155148
1.277134
1.357917
1.377708
1.34494
1.263508
1.124327
0.963408
0.809303
0.67434
0.575713
0.540674
0.559167
0.619835
0.743444
0.893331
1.045814
1.184022
1.29076
1.345589
1.343318
1.306982
1.21095
1.064631
0.908579
0.765181
0.64579
0.561438
0.543269
0.573442
0.653252
0.789837
0.941996
1.101616
1.244042
1.347536
1.383872
1.36473
1.301791
1.178182
1.024726
0.86251
0.714894
0.60264
0.549434
0.55722
0.606858
0.710352
0.855373
1.010775
1.158067
1.280703
1.357593
1.372841
1.341047
1.25929
1.11946
0.959515
0.80541
0.672393
0.575713
0.541647
0.561113
0.622431
0.746364
0.898198
1.055871
1.197324
1.309253
1.36765
1.366677
1.321581
1.217114
1.073066
0.913446
0.763234
0.638977
0.558518
0.542621
0.575388
0.656172
0.791135
0.948485
1.099021
1.230091
1.32807
1.36473
1.351429
1.297249
1.178831
1.024726
0.864781
0.71976
0.608156
0.549434
0.553976
0.600369
0.705161
0.847911
1.00526
1.151903
1.275187
1.354997
1.372517
1.343642
1.261886
1.121082
0.95984
0.804437
0.670447
0.570197
0.538727
0.56014
0.625026
0.741822
0.893656
1.048085
1.185644
1.295951
1.355646
1.355646
1.320283
1.231065
1.089288
0.927397
0.774265
0.647736
0.565655
0.549758
0.579606
0.65974
0.793406
0.947836
1.096425
1.227171
1.330665
1.376086
1.359215
1.295626
1.17072
1.013371
0.850506
0.706134
0.605236
0.558518
0.56306
0.605885
0.70581
0.844991
0.998123
1.146063
1.271618
1.355646
1.373166
1.341696
1.261561
1.121731
0.960813
0.807032
0.673691
0.580579
0.546514
0.565331
0.623404
0.749608
0.89982
1.054574
1.194728
1.306657
1.364082
1.362135
1.314443
1.207705
1.060089
0.898847
0.749932
0.632488
0.558518
0.546838
0.580579
0.660389
0.796651
0.954
1.106807
1.239175
1.337154
1.372517
1.354997
1.293355
1.165854
1.010775
0.851804
0.712947
0.603614
0.544567
0.546514
0.591285
0.692832
0.836231
0.997798
1.149308
1.272267
1.352078
1.368948
1.335532
1.252477
1.114594
0.957893
0.804437
0.669798
0.57701
0.542945
0.560789
0.622106
0.744742
0.895602
1.048734
1.190835
1.306657
1.369272
1.372192
1.328718
1.22198
1.07112
0.907931
0.756097
0.63119
0.550407
0.534834
0.567602
0.648061
0.7827
0.938752
1.088639
1.218087
1.317688
1.359864
1.345913
1.289787
1.166178
1.0111
0.853426
0.707756
0.599396
0.540998
0.545541
0.590637
0.692832
0.834933
0.990336
1.137628
1.259615
1.342345
1.363108
1.334234
1.252153
1.111025
0.948809
0.795677
0.663309
0.565655
0.52867
0.544567
0.601992
0.722356
0.871919
1.032188
1.188888
1.307955
1.366353
1.364406
1.318986
1.213221
1.06528
0.904362
0.752852
0.627622
0.546838
0.532563
0.56598
0.646439
0.7827
0.938752
1.092208
1.221332
1.320283
1.355646
1.338776
1.276809
1.149957
0.994554
0.835907
0.695752
0.586094
0.528021
0.52867
0.573442
0.676935
0.82001
0.981577
1.130491
1.253775
1.335532
1.352078
1.320283
1.237878
1.098372
0.939076
0.785944
0.656496
0.557869
0.52283
0.540025
0.600045
0.722031
0.874839
1.03089
1.17072
1.281027
1.340074
1.338451
1.294978
1.191159
1.045165
0.885545
0.73728
0.613022
0.535159
0.523479
0.556247
0.636706
0.772318
0.929019
1.081502
1.214843
1.315741
1.355971
1.342345
1.281027
1.152876
0.996825
0.834285
0.686668
0.571819
0.510502
0.50888
0.56306
0.67142
0.821632
0.983523
1.13114
1.252153
1.331963
1.356295
1.330016
1.246962
1.108105
0.94524
0.789189
0.652603
0.553327
0.520235
0.537105
0.598747
0.720409
0.869323
1.023428
1.164556
1.276809
1.33618
1.335532
1.294004
1.191808
1.043543
0.880029
0.730142
0.606209
0.527048
0.512124
0.544567
0.626
0.760963
0.918312
1.069822
1.198946
1.294978
1.333909
1.319634
1.26513
1.148659
0.999096
0.842071
0.69705
0.581228
0.521533
0.521208
0.565006
0.667527
0.80833
0.966653
1.119136
1.244042
1.324176
1.343967
1.314443
1.234309
1.094803
0.933236
0.778807
0.644168
0.545541
0.510502
0.530292
0.591934
0.712623
0.860888
1.014669
1.15677
1.269347
1.3391
1.345264
1.304062
1.197972
1.046138
0.88814
0.737928
0.612373
0.53159
0.517315
0.550731
0.639626
0.795677
0.983199
1.1678
1.332287
1.459464
1.523053
1.530839
1.492232
1.387116
1.249557
1.110376
0.980279
0.874839
0.82001
0.824227
0.871594
0.976061
1.118811
1.274538
1.421182
1.537653
1.611299
1.621031
1.588264
1.507805
1.366677
1.204786
1.047761
0.907931
0.803139
0.759341
0.768749
0.821632
0.943943
1.097074
1.245664
1.381276
1.486068
1.539924
1.533435
1.483148
1.372517
1.218736
1.051978
0.895278
0.766154
0.68018
0.657794
0.686019
0.766154
0.900469
1.053925
1.201866
1.333909
1.429941
1.459789
1.438052
1.377059
1.249882
1.09091
0.929992
0.783024
0.666878
0.604587
0.603614
0.645141
0.744742
0.884896
1.039001
1.184022
1.304711
1.386792
1.402364
1.370895
1.288813
1.152552
0.998771
0.844666
0.709054
0.604911
0.564682
0.578633
0.636057
0.758043
0.915393
1.072742
1.21095
1.320283
1.375437
1.371543
1.327421
1.226522
1.078906
0.914744
0.760314
0.631515
0.546189
0.52575
0.555273
0.637355
0.774914
0.932587
1.088315
1.222954
1.321257
1.355971
1.338776
1.280378
1.158716
1.008504
0.844342
0.697699
0.578957
0.513746
0.509204
0.546514
0.647412
0.792109
0.965679
1.121407
1.255072
1.347211
1.366677
1.332936
1.247286
1.103887
0.943618
0.791135
0.658443
0.559491
0.522506
0.538403
0.59745
0.719436
0.870621
1.026348
1.170071
1.28492
1.345264
1.344616
1.29952
1.192782
1.044192
0.882949
0.731115
0.604911
0.52575
0.511151
0.541972
0.621133
0.755448
0.915393
1.073066
1.208679
1.308279
1.345913
1.334558
1.274538
1.147037
0.990012
0.832662
0.687966
0.576037
0.516666
0.518937
0.566304
0.670771
0.814494
0.971519
1.119136
1.238851
1.320283
1.34202
1.316714
1.23658
1.099345
0.937778
0.784971
0.650981
0.552354
0.51472
0.533861
0.595827
0.717489
0.870945
1.027646
1.169423
1.280703
1.337803
1.335207
1.286867
1.178507
1.032188
0.872568
0.721058
0.594205
0.518613
0.514395
0.55722
0.644492
0.784971
0.944591
1.092208
1.218087
1.311848
1.344616
1.32807
1.268374
1.143144
0.987416
0.829094
0.689264
0.576037
0.517964
0.520559
0.564358
0.667527
0.809952
0.96795
1.117189
1.240149
1.323203
1.338451
1.306982
1.226847
1.086044
0.924801
0.772643
0.635408
0.535808
0.501742
0.519586
0.578633
0.699321
0.852777
1.009802
1.150605
1.263508
1.32515
1.328394
1.289138
1.184022
1.034459
0.867377
0.720409
0.600369
0.52283
0.50888
0.54035
0.62016
0.755123
0.912148
1.064307
1.198621
1.298222
1.334883
1.319959
1.25929
1.133411
0.978981
0.820334
0.676286
0.564033
0.510177
0.514071
0.560464
0.663309
0.807032
0.965031
1.113296
1.236904
1.31931
1.336829
1.30763
1.226847
1.088963
0.92837
0.774265
0.641248
0.543918
0.509853
0.52867
0.590312
0.712623
0.862186
1.015642
1.156445
1.26513
1.326447
1.335207
1.302764
1.201866
1.052303
0.890087
0.738253
0.612049
0.530292
0.515044
0.546514
0.627946
0.761612
0.919286
1.075013
1.211923
1.313795
1.354349
1.331314
1.266428
1.137304
0.981577
0.822281
0.680504
0.580255
0.533861
0.54035
0.585446
0.686019
0.82812
0.985145
1.131788
1.252477
1.331314
1.347211
1.315741
1.232038
1.091883
0.936805
0.784322
0.650656
0.551705
0.518937
0.542621
0.604263
0.724302
0.87419
1.031539
1.177858
1.298222
1.360513
1.360837
1.314768
1.206732
1.058142
0.89982
0.749608
0.625026
0.542296
0.527372
0.559491
0.639301
0.774265
0.93421
1.083124
1.215816
1.314443
1.352402
1.33618
1.275512
1.149308
0.994229
0.835907
0.691859
0.579281
0.522181
0.524777
0.572144
0.677909
0.819685
0.981252
1.129193
1.251828
1.332936
1.35078
1.320283
1.239175
1.101292
0.941023
0.786269
0.652279
0.553002
0.517639
0.535808
0.597125
0.721707
0.873541
1.028619
1.169423
1.280703
1.3391
1.339749
1.30244
1.197972
1.049383
0.888789
0.740524
0.615618
0.532888
0.515693
0.545865
0.624702
0.759341
0.916366
1.067551
1.200892
1.312172
1.360837
1.346562
1.28492
1.161312
1.005909
0.846613
0.698997
0.581877
0.51991
0.524777
0.570846
0.672718
0.82001
0.98255
1.129517
1.246637
1.325474
1.351104
1.328394
1.249557
1.108754
0.947836
0.791784
0.655847
0.556247
0.519586
0.53743
0.597125
0.717814
0.865106
1.021157
1.171694
1.289787
1.352726
1.3537
1.306657
1.200244
1.051005
0.889762
0.738902
0.613022
0.531914
0.516342
0.548136
0.627946
0.764207
0.91961
1.069498
1.198621
1.294329
1.326123
1.317363
1.264481
1.140873
0.991958
0.838502
0.691859
0.574739
0.51472
0.516017
0.561762
0.666878
0.813521
0.973466
1.122704
1.245015
1.325474
1.342993
1.313146
1.232038
1.094154
0.93129
0.775887
0.63995
0.539052
0.501418
0.517315
0.581552
0.708081
0.859915
1.01402
1.157419
1.272592
1.333585
1.335207
1.289138
1.17948
1.028944
0.863159
0.709054
0.583823
0.511151
0.507906
0.549758
0.634759
0.773291
0.930316
1.078582
1.209328
1.307306
1.343642
1.328718
1.271294
1.146388
0.990661
0.831365
0.686019
0.570197
0.510502
0.512773
0.556896
0.65974
0.803788
0.963733
1.113945
1.23658
1.318661
1.33618
1.305684
1.225225
1.086368
0.922854
0.763234
0.624053
0.519586
0.479681
0.497525
0.568575
0.703863
0.861861
1.020184
1.158716
1.264805
1.321257
1.321581
1.280054
1.175587
1.02797
0.868999
0.719111
0.589988
0.502391
0.481952
0.515368
0.601018
0.745715
0.902091
1.056196
1.191159
1.292707
1.33618
1.322879
1.263508
1.137628
0.980928
0.82001
0.672069
0.553976
0.49136
0.489414
0.530292
0.63119
0.780429
0.943294
1.095452
1.223278
1.313146
1.336829
1.304711
1.220683
1.079231
0.91961
0.763559
0.630866
0.534834
0.499147
0.516017
0.574415
0.696401
0.847262
1.003314
1.146063
1.258966
1.319634
1.321581
1.276485
1.172342
1.02505
0.863808
0.713272
0.587392
0.505635
0.488116
0.520235
0.60264
0.736955
0.894629
1.052952
1.187915
1.289138
1.326447
1.309577
1.25053
1.125949
0.969248
0.813197
0.667527
0.549758
0.490387
0.49136
0.537105
0.638004
0.791135
0.958218
1.110052
1.232362
1.313146
1.329692
1.299844
1.219709
1.081177
0.920583
0.763883
0.627297
0.525426
0.487143
0.503364
0.562735
0.687317
0.839151
0.993256
1.134059
1.248584
1.311524
1.313795
1.273241
1.174613
1.031215
0.872243
0.722031
0.595503
0.511151
0.492983
0.526075
0.606534
0.742146
0.900469
1.054249
1.188564
1.288489
1.326772
1.309901
1.250855
1.126598
0.971195
0.812223
0.666229
0.55138
0.49136
0.493307
0.539052
0.641572
0.783673
0.941023
1.087341
1.208354
1.292058
1.315741
1.291409
1.210301
1.072417
0.912148
0.760963
0.633137
0.532239
0.493307
0.508231
0.56598
0.686668
0.834285
0.991634
1.141846
1.257343
1.314768
1.316066
1.271294
1.164232
1.013371
0.850831
0.709378
0.596152
0.512773
0.492658
0.523804
0.606858
0.746039
0.911175
1.067551
1.201541
1.302764
1.339425
1.323203
1.263183
1.137304
0.983199
0.823903
0.678233
0.562735
0.501418
0.502067
0.544567
0.647412
0.790811
0.950756
1.105509
1.231065
1.31347
1.331638
1.301466
1.222305
1.084421
0.923828
0.767452
0.630542
0.527697
0.490387
0.508231
0.568251
0.693481
0.849208
1.00818
1.15385
1.266752
1.328394
1.330665
1.285245
1.181751
1.03381
0.872568
0.725276
0.597125
0.514395
0.497849
0.529643
0.609129
0.74539
0.903064
1.055871
1.189213
1.289787
1.326772
1.311524
1.251504
1.124975
0.972817
0.817739
0.674015
0.559167
0.499796
0.500769
0.547487
0.649359
0.79146
0.948485
1.102265
1.232038
1.316066
1.332936
1.30244
1.222954
1.083448
0.921557
0.76583
0.630866
0.531266
0.493631
0.509853
0.570197
0.692184
0.841747
1.000069
1.146063
1.259615
1.318986
1.320608
1.278756
1.178507
1.032512
0.869323
0.714894
0.58869
0.507582
0.498174
0.538079
0.618538
0.750257
0.904037
1.052303
1.183049
1.283298
1.325799
1.31639
1.260588
1.135682
0.981901
0.823903
0.676611
0.558518
0.495902
0.495578
0.539376
0.646439
0.796326
0.958542
1.107456
1.23074
1.314443
1.333585
1.302115
1.218412
1.078257
0.916041
0.761936
0.627622
0.53159
0.496551
0.513097
0.573117
0.695103
0.847262
1.004287
1.146712
1.259939
1.320608
1.32223
1.277458
1.17364
1.025375
0.864781
0.713596
0.589014
0.506933
0.494929
0.524128
0.601992
0.734035
0.889114
1.039974
1.177209
1.278756
1.32223
1.315092
1.257992
1.136006
0.979954
0.818063
0.672718
0.558518
0.495902
0.501742
0.545541
0.646763
0.786593
0.949133
1.103563
1.229442
1.315417
1.333261
1.30244
1.220358
1.080204
0.918312
0.766154
0.63411
0.533212
0.49428
0.50888
0.56598
0.686344
0.834933
0.989687
1.133086
1.253126
1.318986
1.324825
1.285245
1.184346
1.037054
0.873865
0.720734
0.593556
0.509529
0.492658
0.523155
0.601018
0.737604
0.893656
1.047761
1.183049
1.285569
1.325474
1.308928
1.249557
1.123029
0.967302
0.798922
0.649359
0.53159
0.47741
0.481952
0.53159
0.641572
0.797624
0.962435
1.1107
1.233984
1.317363
1.332287
1.300168
1.219709
1.088639
0.929992
0.772643
0.633461
0.535159
0.496876
0.512448
0.571171
0.690886
0.841422
0.997149
1.136979
1.249882
1.311848
1.311199
1.26513
1.166503
1.026673
0.869648
0.723005
0.597774
0.517964
0.504662
0.535808
0.613671
0.747013
0.90274
1.054249
1.18824
1.288165
1.329043
1.315417
1.25637
1.131464
0.975737
0.816765
0.670447
0.553327
0.493307
0.4972
0.539376
0.642221
0.791784
0.95108
1.101292
1.222629
1.305359
1.326447
1.299195
1.225874
1.086692
0.927721
0.772967
0.63703
0.53451
0.496227
0.518288
0.572144
0.695752
0.847586
1.004936
1.14801
1.263508
1.326447
1.329692
1.290436
1.183373
1.035432
0.874514
0.723978
0.596801
0.515693
0.499471
0.529643
0.60848
0.742795
0.897873
1.04841
1.178507
1.275187
1.311199
1.297249
1.24534
1.127246
0.977683
0.830391
0.698348
0.589014
0.526075
0.523804
0.567277
0.666553
0.807357
0.967626
1.119136
1.242095
1.326447
1.350455
1.323203
1.244042
1.103238
0.941671
0.784971
0.647412
0.543918
0.504662
0.518937
0.576362
0.696077
0.843693
0.999745
1.144117
1.25929
1.320283
1.32807
1.296924
1.200568
1.051978
0.887167
0.737928
0.616267
0.533212
0.514071
0.542945
0.619186
0.754474
0.909877
1.061387
1.194728
1.2966
1.337478
1.326447
1.271294
1.148334
0.992607
0.832014
0.686344
0.570846
0.509853
0.509204
0.553976
0.656496
0.800544
0.959515
1.109403
1.233011
1.317363
1.336829
1.309253
1.232038
1.096425
0.936805
0.780429
0.64287
0.54035
0.501742
0.517639
0.57701
0.699646
0.851804
1.009478
1.15385
1.269996
1.334234
1.338776
1.296924
1.195701
1.048085
0.885545
0.733386
0.606209
0.523479
0.506609
0.537105
0.613996
0.748959
0.906633
1.060738
1.196026
1.30244
1.348509
1.33618
1.277134
1.149308
0.991634
0.829743
0.681802
0.561438
0.503689
0.512448
0.558518
0.657145
0.800868
0.955946
1.111674
1.24534
1.33618
1.35662
1.32807
1.253126
1.114594
0.951404
0.792433
0.652603
0.54846
0.509529
0.525426
0.582526
0.699646
0.847586
1.00234
1.146063
1.267401
1.348833
1.359864
1.31639
1.210301
1.059116
0.897873
0.745715
0.619186
0.533861
0.515368
0.545541
0.62308
0.75707
0.914744
1.066902
1.201217
1.302115
1.342345
1.330016
1.273241
1.151254
0.997149
0.84272
0.69121
0.573117
0.510502
0.512448
0.555922
0.657145
0.802815
0.964057
1.116216
1.240149
1.324176
1.342669
1.311848
1.234633
1.099021
0.940374
0.783024
0.650981
0.553651
0.515368
0.529643
0.585121
0.703539
0.853426
1.007531
1.147361
1.263508
1.335207
1.34202
1.298222
1.194404
1.048734
0.890736
0.741822
0.624377
0.548136
0.532563
0.560789
0.639301
0.771669
0.928045
1.079555
1.213545
1.316066
1.357268
1.342993
1.284596
1.164232
1.00818
0.846937
0.698997
0.581228
0.516342
0.516991
0.567602
0.672393
0.816116
0.975737
1.130815
1.258641
1.343318
1.359215
1.332936
1.254748
1.114269
0.957244
0.801517
0.664607
0.56306
0.524128
0.541647
0.60264
0.720409
0.869323
1.022455
1.165854
1.27908
1.348509
1.354349
1.315092
1.215167
1.0682
0.90566
0.750906
0.622431
0.541647
0.528995
0.561762
0.638004
0.773291
0.933561
1.085395
1.218736
1.321257
1.363108
1.35078
1.293031
1.169423
1.014669
0.855048
0.708081
0.59161
0.528021
0.52575
0.567277
0.667527
0.809628
0.970546
1.12822
1.25929
1.345913
1.365704
1.33618
1.258966
1.119784
0.956271
0.796651
0.658443
0.552354
0.50888
0.524128
0.589663
0.720734
0.87711
1.037379
1.180778
1.294653
1.354673
1.3537
1.308604
1.206083
1.061711
0.903713
0.76291
0.651305
0.571171
0.55138
0.577984
0.651954
0.782051
0.938752
1.089288
1.222629
1.324176
1.365379
1.354997
1.298222
1.175262
1.022131
0.86251
0.716516
0.602316
0.540998
0.540998
0.583499
0.683748
0.827147
0.986443
1.13633
1.261886
1.347536
1.368299
1.339749
1.263508
1.125949
0.965031
0.808979
0.672393
0.570197
0.531266
0.547163
0.60556
0.727547
0.879381
1.03673
1.180453
1.295302
1.359864
1.361811
1.318986
1.216465
1.067875
0.907282
0.762585
0.638977
0.554949
0.535808
0.563384
0.640599
0.774914
0.933236
1.085719
1.221007
1.322554
1.361486
1.350131
1.296275
1.172667
1.01986
0.85959
0.710352
0.592908
0.53451
0.532888
0.574739
0.675313
0.819685
0.978657
1.132762
1.262534
1.349807
1.370246
1.341371
1.263183
1.124975
0.964706
0.812548
0.680828
0.581552
0.539376
0.553002
0.607831
0.724951
0.872892
1.027646
1.169747
1.286867
1.356295
1.363433
1.323852
1.222954
1.076311
0.910202
0.755772
0.627297
0.539052
0.519262
0.55138
0.632488
0.772643
0.936156
1.090586
1.224576
1.326123
1.366677
1.354024
1.295951
1.17364
1.018562
0.858941
0.712623
0.596801
0.532888
0.533537
0.576686
0.675962
0.818712
0.978332
1.129517
1.255721
1.343318
1.361811
1.333909
1.259939
1.11654
0.953351
0.792109
0.650656
0.544892
0.506609
0.524452
0.594205
0.729169
0.88522
1.041596
1.185969
1.301791
1.36473
1.367001
1.323852
1.221332
1.073391
0.91085
0.758368
0.631839
0.544892
0.52575
0.554625
0.629244
0.761612
0.920259
1.072742
1.205759
1.310226
1.357593
1.345913
1.286218
1.164232
1.01402
0.859915
0.716192
0.602965
0.538079
0.533861
0.573766
0.670771
0.808655
0.965355
1.117838
1.243069
1.332612
1.359864
1.343318
1.272267
1.13633
0.974115
0.813197
0.671744
0.565331
0.523479
0.536456
0.593881
0.714894
0.870945
1.032512
1.177533
1.292382
1.355322
1.35662
1.312821
1.211274
1.065604
0.90566
0.755772
0.628595
0.539701
0.521533
0.550731
0.625675
0.761288
0.92253
1.077284
1.213221
1.316714
1.358566
1.343967
1.28492
1.165205
1.014993
0.855373
0.708081
0.591934
0.529319
0.52867
0.572793
0.671744
0.813845
0.971519
1.121082
1.245988
1.332287
1.353375
1.330016
1.257019
1.119136
0.956595
0.797299
0.657794
0.5543
0.513746
0.534834
0.59745
0.716192
0.867377
1.026673
1.173316
1.285569
1.34786
1.34786
1.304711
1.202839
1.056845
0.901118
0.752528
0.622431
0.534185
0.51472
0.542296
0.617564
0.753177
0.91085
1.0682
1.208354
1.315417
1.359864
1.349482
1.295951
1.17364
1.01694
0.855048
0.708405
0.592259
0.527372
0.524452
0.565331
0.660389
0.804112
0.968275
1.118162
1.242095
1.330016
1.356944
1.332612
1.256046
1.118162
0.957893
0.800544
0.66266
0.557869
0.517964
0.532888
0.590312
0.708405
0.860888
1.017588
1.162285
1.275187
1.338776
1.341047
1.297573
1.192457
1.047112
0.889438
0.741173
0.612373
0.530617
0.516991
0.549758
0.629893
0.77102
0.931939
1.083124
1.215492
1.316714
1.354997
1.345913
1.293031
1.168774
1.012073
0.851155
0.699321
0.581552
0.516666
0.522506
0.564682
0.66558
0.816765
0.978332
1.126922
1.25053
1.335856
1.356295
1.328394
1.251179
1.112647
0.953351
0.798273
0.661038
0.555598
0.514395
0.529968
0.590961
0.714569
0.868026
1.02505
1.167476
1.281676
1.345589
1.348833
1.310875
1.215492
1.069498
0.905984
0.753177
0.624702
0.538727
0.520559
0.550083
0.626973
0.761288
0.923503
1.074688
1.209976
1.315092
1.357593
1.344616
1.289462
1.166178
1.008504
0.851804
0.704836
0.58869
0.526075
0.527048
0.57409
0.673042
0.816765
0.974439
1.125949
1.256046
1.343967
1.366028
1.341047
1.265779
1.130815
0.966977
0.808655
0.669473
0.565331
0.524452
0.537105
0.59453
0.718463
0.872892
1.03089
1.177209
1.297249
1.365379
1.369272
1.326123
1.224576
1.078582
0.915068
0.75999
0.629568
0.542296
0.529643
0.564033
0.641248
0.779131
0.940374
1.092857
1.225874
1.327096
1.36765
1.3537
1.29952
1.182724
1.033161
0.873216
0.726898
0.613022
0.54846
0.544567
0.586743
0.685695
0.826174
0.981901
1.133411
1.259615
1.343642
1.365055
1.34202
1.274863
1.145415
0.986767
0.830067
0.690886
0.584472
0.536456
0.552354
0.608156
0.725924
0.87419
1.03381
1.182724
1.298546
1.364082
1.368948
1.330016
1.231713
1.083773
0.921881
0.768425
0.640599
0.553651
0.533212
0.562087
0.638328
0.772967
0.929343
1.082475
1.217763
1.322879
1.36765
1.357593
1.301791
1.182724
1.029592
0.870621
0.723005
0.60556
0.537754
0.536456
0.578957
0.676611
0.818387
0.97671
1.129517
1.256046
1.343642
1.368948
1.345589
1.269347
1.128544
0.966004
0.807357
0.67142
0.577335
0.543918
0.558518
0.614644
0.730142
0.878407
1.035757
1.18532
1.304062
1.370246
1.376734
1.336829
1.23658
1.088315
0.923828
0.770372
0.643843
0.558518
0.540025
0.568575
0.643194
0.77394
0.929668
1.08507
1.2249
1.337478
1.386792
1.377383
1.320932
1.197324
1.039974
0.879056
0.735333
0.622106
0.55722
0.553002
0.593881
0.690237
0.832014
0.990336
1.141846
1.272267
1.362135
1.384521
1.355322
1.276809
1.138277
0.981577
0.830391
0.696077
0.594205
0.552029
0.565331
0.621458
0.740524
0.890736
1.048734
1.193755
1.309577
1.375761
1.380303
1.340398
1.239824
1.092208
0.927721
0.773291
0.644492
0.552354
0.53451
0.566304
0.647088
0.786593
0.94524
1.09967
1.235607
1.3391
1.382574
1.369921
1.313146
1.190186
1.035432
0.87419
0.732089
0.617564
0.56014
0.554949
0.597125
0.693481
0.835907
0.9965
1.147686
1.273565
1.361811
1.38517
1.357917
1.283298
1.145415
0.983523
0.826174
0.68829
0.58285
0.541647
0.558193
0.619511
0.739226
0.886843
1.040623
1.183373
1.300493
1.367975
1.378357
1.338776
1.242095
1.094479
0.929992
0.777834
0.655523
0.567277
0.545541
0.57701
0.651954
0.785295
0.944591
1.104861
1.244042
1.350131
1.391983
1.380952
1.329367
1.199595
1.04257
0.875812
0.730791
0.61432
0.54846
0.545865
0.589339
0.686993
0.830716
0.994229
1.148659
1.276161
1.362784
1.381601
1.355322
1.274214
1.135357
0.974764
0.82293
0.691535
0.589988
0.547812
0.558842
0.613022
0.730791
0.881003
1.038677
1.184346
1.301791
1.371868
1.378681
1.337478
1.239175
1.090261
0.926423
0.773291
0.644168
0.556896
0.537105
0.566629
0.642546
0.77394
0.930316
1.083773
1.219385
1.322879
1.375437
1.365704
1.31055
1.187591
1.032512
0.871594
0.723329
0.603938
0.539376
0.538079
0.581877
0.679206
0.822281
0.98255
1.133735
1.258966
1.346562
1.368624
1.340722
1.263508
1.124651
0.964057
0.806708
0.671096
0.572793
0.532239
0.543918
0.596476
0.715218
0.867701
1.027646
1.178507
1.305684
1.374463
1.377708
1.335207
1.235931
1.08799
0.922206
0.764856
0.634759
0.545865
0.524777
0.555273
0.634759
0.772967
0.933885
1.08799
1.22198
1.324825
1.372517
1.363433
1.306657
1.184995
1.032837
0.871594
0.721058
0.602965
0.539701
0.538079
0.580255
0.678882
0.822281
0.983848
1.134708
1.261237
1.348833
1.368299
1.342993
1.266752
1.135682
0.978332
0.820983
0.684397
0.580579
0.54035
0.558193
0.61432
0.73144
0.880029
1.036081
1.181102
1.298546
1.364406
1.368624
1.328718
1.230091
1.082799
0.920908
0.769074
0.639301
0.55138
0.530941
0.56014
0.635408
0.769074
0.927072
1.080204
1.216465
1.318986
1.360837
1.348184
1.292382
1.172342
1.020508
0.864457
0.719436
0.600045
0.53451
0.53743
0.583175
0.681477
0.823578
0.984172
1.136655
1.263183
1.351753
1.374463
1.34786
1.27097
1.133411
0.973466
0.818712
0.679855
0.576037
0.534185
0.547163
0.604587
0.723978
0.875487
1.031863
1.177858
1.294004
1.360188
1.364406
1.319634
1.218736
1.068524
0.902415
0.75999
0.638328
0.550731
0.527697
0.555922
0.636057
0.771669
0.932587
1.089612
1.228469
1.328718
1.369921
1.357268
1.306657
1.196026
1.045165
0.882949
0.733386
0.612373
0.544243
0.540998
0.584472
0.684073
0.832014
0.991958
1.141197
1.265779
1.353051
1.375437
1.348184
1.272916
1.134708
0.972492
0.813845
0.673042
0.560464
0.522506
0.539376
0.599721
0.718787
0.867701
1.029268
1.180129
1.298546
1.365379
1.374139
1.337154
1.240473
1.093181
0.928694
0.773616
0.643843
0.553976
0.532239
0.559491
0.634759
0.767127
0.924801
1.079555
1.215816
1.322554
1.367326
1.355971
1.302764
1.181426
1.026997
0.866728
0.714894
0.599721
0.53451
0.53159
0.574739
0.671744
0.815143
0.974439
1.124002
1.25053
1.337803
1.360837
1.335207
1.263508
1.125949
0.966653
0.814494
0.678882
0.573442
0.528346
0.536781
0.589663
0.704836
0.850506
1.004611
1.159365
1.293031
1.369272
1.378032
1.335856
1.232362
1.082799
0.918637
0.763234
0.635732
0.551705
0.533212
0.561438
0.63411
0.76583
0.922206
1.075337
1.212572
1.319959
1.366028
1.355322
1.300493
1.178182
1.023104
0.86251
0.714569
0.599721
0.535808
0.534834
0.575713
0.672718
0.816116
0.972492
1.124327
1.247935
1.337478
1.359539
1.332612
1.257343
1.12238
0.964706
0.812872
0.676286
0.569548
