1.072417
1.132113
1.205759
1.269023
1.349158
1.405609
1.381925
1.364406
1.327745
1.292058
1.255072
1.216465
1.155472
1.109403
1.075013
1.043543
1.039974
1.046138
1.052627
1.084097
1.135033
1.208354
1.233336
1.218736
1.178182
1.134059
1.107456
1.073391
1.048734
1.009153
0.960164
0.960813
0.971519
1.03673
1.104536
1.16488
1.229118
1.305035
1.352078
1.332936
1.317688
1.284596
1.238202
1.194728
1.136979
1.089937
1.051005
1.029592
1.022131
1.046787
1.086044
1.11362
1.154823
1.200892
1.265779
1.315092
1.286218
1.266428
1.225549
1.182724
1.136006
1.089288
1.029592
0.984172
0.961462
0.944916
0.982225
1.027321
1.076959
1.14801
1.229442
1.314119
1.330016
1.311848
1.27908
1.231713
1.191808
1.138602
1.095452
1.044516
0.994229
0.99942
1.011424
1.050356
1.100967
1.151579
1.216141
1.313146
1.391658
1.370895
1.350455
1.308279
1.264157
1.223603
1.18532
1.15093
1.090261
1.060738
1.064956
1.109727
1.151254
1.190511
1.241446
1.279729
1.313795
1.338776
1.290111
1.254748
1.19635
1.138926
1.09383
1.064307
1.02505
0.982874
0.975088
0.97671
1.023753
1.079879
1.130491
1.19927
1.264157
1.337478
1.340398
1.300817
1.254099
1.198621
1.154823
1.101292
1.054898
1.012722
0.975088
0.975088
0.987741
1.031215
1.086044
1.141846
1.21387
1.296275
1.365055
1.342993
1.316066
1.261237
1.204461
1.151903
1.09967
1.061062
1.009802
0.983523
0.979306
1.0111
1.060089
1.115567
1.188564
1.253775
1.327421
1.38517
1.360513
1.325799
1.275836
1.225225
1.188888
1.13925
1.089937
1.035757
1.017913
1.016291
1.063333
1.11362
1.162934
1.223278
1.281351
1.349158
1.34786
1.318337
1.253126
1.184022
1.130166
1.067227
1.02797
0.999745
0.971519
0.984821
1.00818
1.063982
1.123029
1.173965
1.238851
1.321581
1.379654
1.351753
1.329043
1.276485
1.200892
1.138602
1.079231
1.038352
0.97963
0.948809
0.953675
0.99131
1.058142
1.113296
1.193755
1.270321
1.356944
1.398147
1.369272
1.324501
1.256046
1.184995
1.133735
1.096101
1.058791
1.026024
1.023428
1.023753
1.074364
1.120109
1.158716
1.208679
1.259939
1.326123
1.329692
1.295951
1.247286
1.183049
1.135033
1.070795
1.025699
0.97379
0.9394
0.952378
0.990012
1.052952
1.121731
1.184995
1.236904
1.311848
1.372517
1.35078
1.327745
1.276161
1.210301
1.150281
1.093181
1.042894
0.995852
0.958218
0.950107
0.976061
1.021806
1.073066
1.147361
1.21387
1.300817
1.348833
1.324825
1.304386
1.265454
1.218087
1.171694
1.131464
1.082475
1.020508
0.997149
0.984172
1.030566
1.081502
1.133086
1.206083
1.283622
1.334883
1.329692
1.299844
1.256046
1.199919
1.161312
1.100643
1.045814
0.990012
0.962111
0.976386
0.998123
1.043867
1.081177
1.1253
1.199595
1.304386
1.403662
1.425399
1.446163
1.398796
1.318012
1.241122
1.158392
1.076635
1.019211
0.95692
0.918637
0.918637
0.949458
0.994554
1.076959
1.15677
1.246313
1.291409
1.272592
1.255397
1.209976
1.170071
1.133086
1.097723
1.049383
1.006882
1.005585
1.012722
1.061711
1.104536
1.155148
1.215492
1.294004
1.353375
1.353051
1.324825
1.27908
1.223278
1.184995
1.120109
1.065929
1.002989
0.957569
0.955298
0.972492
1.022779
1.078906
1.144441
1.208354
1.291084
1.369272
1.355971
1.351104
1.317363
1.272916
1.234309
1.196675
1.146063
1.112971
1.070146
1.058142
1.075986
1.113296
1.129517
1.161312
1.189862
1.231389
1.238851
1.21095
1.194404
1.153525
1.115567
1.080528
1.052627
1.005909
0.960164
0.969897
0.977359
1.036406
1.093505
1.152552
1.222629
1.306333
1.363757
1.355646
1.310875
1.258641
1.207381
1.160987
1.09967
1.063009
1.016291
0.980928
0.989363
1.017264
1.079879
1.139575
1.19343
1.243393
1.315417
1.379005
1.354349
1.350131
1.321581
1.260263
1.186617
1.103563
1.020508
0.965679
0.92545
0.910202
0.929343
0.972168
1.014669
1.083773
1.157743
1.258966
1.297897
1.277783
1.251179
1.204786
1.164556
1.124651
1.105185
1.072093
1.029268
1.021157
1.024402
1.05944
1.101616
1.140224
1.192133
1.267725
1.321257
1.313795
1.283298
1.241122
1.20219
1.17656
1.118487
1.085719
1.022779
0.989363
0.993256
1.016615
1.060089
1.111674
1.17364
1.22782
1.292058
1.34494
1.327745
1.318986
1.300168
1.280703
1.258317
1.223927
1.152552
1.072417
0.999096
0.975088
1.015966
1.076311
1.123678
1.181751
1.233336
1.294653
1.303088
1.264481
1.23366
1.192133
1.149632
1.10778
1.076311
1.032512
0.986767
0.998771
1.026348
1.083448
1.131788
1.172342
1.201217
1.239175
1.286867
1.304062
1.303737
1.268374
1.220034
1.173965
1.109078
1.061062
0.998123
0.940374
0.927397
0.939076
0.987741
1.044516
1.11362
1.170071
1.247935
1.31639
1.306657
1.296275
1.257019
1.195377
1.143468
1.096425
1.044516
1.007207
0.982225
0.982874
1.006558
1.054249
1.088315
1.152552
1.217438
1.297573
1.311199
1.282325
1.249233
1.201541
1.162285
1.11362
1.087341
1.045814
1.004611
1.010451
1.023428
1.070146
1.127895
1.192457
1.279729
1.372517
1.43935
1.42183
1.362459
1.278432
1.184671
1.11654
1.046787
0.998123
0.94232
0.894953
0.893656
0.917664
0.970546
1.030241
1.105834
1.174938
1.275836
1.365704
1.371543
1.36765
1.313146
1.229767
1.15385
1.083773
1.030241
0.990985
0.959515
0.950431
0.992932
1.0536
1.098372
1.168449
1.228794
1.308279
1.320608
1.28784
1.261561
1.219061
1.177533
1.123353
1.080204
1.025375
0.97379
0.986443
1.00234
1.038677
1.07404
1.119784
1.175262
1.246313
1.301791
1.287516
1.264157
1.212896
1.160663
1.118811
1.07112
1.033161
0.978657
0.941671
0.937454
0.962111
1.020508
1.073066
1.137953
1.19927
1.277783
1.342345
1.328718
1.319959
1.282974
1.237553
1.191808
1.145415
1.092208
1.044841
1.02505
1.020833
1.044841
1.083124
1.114594
1.181426
1.253126
1.332936
1.347536
1.318661
1.277458
1.233336
1.190835
1.138926
1.097723
1.034783
0.972168
0.965031
0.977359
1.023104
1.063009
1.088315
1.134384
1.204137
1.284271
1.294004
1.295951
1.282
1.250855
1.219385
1.151903
1.100967
1.017264
0.966653
0.943618
0.965031
1.019211
1.068849
1.119784
1.159041
1.227171
1.296275
1.289462
1.270321
1.223278
1.169098
1.115242
1.061387
1.007856
0.967302
0.949458
0.944916
0.981577
1.037054
1.083124
1.156445
1.234958
1.321581
1.340074
1.324825
1.295626
1.258966
1.218736
1.171694
1.13925
1.095777
1.047112
1.041272
1.051005
1.089612
1.124651
1.162934
1.211274
1.280378
1.340074
1.331314
1.305035
1.256695
1.198946
1.162609
1.120109
1.093181
1.0536
1.041921
1.035757
1.043543
1.066902
1.105834
1.151903
1.197972
1.255397
1.298222
1.272592
1.255072
1.221656
1.17072
1.134059
1.092857
1.038028
0.997798
0.970221
0.949458
0.975088
1.031215
1.088315
1.176236
1.259939
1.345913
1.35078
1.328718
1.291084
1.241446
1.173316
1.088963
1.031863
0.981252
0.929992
0.92545
0.932263
0.980603
1.025375
1.083124
1.16488
1.27097
1.356295
1.358242
1.345264
1.305684
1.257019
1.208679
1.127571
1.060089
0.990012
0.941347
0.930641
0.952702
0.994554
1.03965
1.101941
1.154823
1.229118
1.290111
1.276485
1.264481
1.226847
1.181102
1.143144
1.106483
1.065929
1.027646
1.017913
1.018562
1.055547
1.111349
1.152552
1.215492
1.277458
1.341696
1.35662
1.349807
1.329692
1.301142
1.259939
1.194404
1.150605
1.097723
1.03673
1.022455
1.008504
1.035108
1.052303
1.09383
1.156121
1.245988
1.317363
1.298222
1.269347
1.21679
1.170396
1.131788
1.075013
1.022455
0.971519
0.966004
0.974439
1.014669
1.060413
1.100967
1.161312
1.228469
1.310226
1.388089
1.374139
1.351104
1.293031
1.221332
1.158067
1.102265
1.034135
0.977359
0.954973
0.94524
0.985145
1.039001
1.096101
1.169747
1.248908
1.332612
1.353051
1.334558
1.282974
1.235282
1.181751
1.128544
1.08507
1.035432
0.97379
0.970221
0.986443
1.036406
1.094479
1.15093
1.211599
1.277458
1.330989
1.30763
1.28784
1.244042
1.197972
1.158392
1.096425
1.039974
0.971844
0.947187
0.946538
0.974764
1.025699
1.083773
1.164232
1.231713
1.30763
1.361162
1.325474
1.289138
1.231713
1.172342
1.144117
1.125949
1.084097
1.036081
1.002665
0.966328
0.960489
0.983523
1.015966
1.076959
1.15093
1.240797
1.252801
1.235607
1.204786
1.169423
1.130815
1.08799
1.062684
1.022455
0.963084
0.954649
0.957569
0.989039
1.023753
1.062684
1.124651
1.194404
1.255397
1.220358
1.193755
1.147037
1.106158
1.063009
1.007531
0.956271
0.893656
0.864781
0.850831
0.884247
0.931939
0.983199
1.052303
1.111674
1.18824
1.249882
1.241446
1.229118
1.178831
1.103563
1.040948
0.978657
0.915068
0.86543
0.864781
0.878083
0.931939
0.996825
1.049383
1.122055
1.19635
1.275836
1.278756
1.273241
1.247935
1.199919
1.151254
1.06528
0.981577
0.900469
0.830716
0.814494
0.830391
0.879056
0.93421
1.002665
1.087666
1.185644
1.276161
1.269996
1.23074
1.160338
1.103563
1.061387
1.007207
0.976386
0.931939
0.911175
0.917988
0.961462
1.019535
1.065929
1.127895
1.182724
1.247611
1.300493
1.270645
1.232362
1.169098
1.095452
1.041272
1.010451
0.972817
0.927721
0.921881
0.930641
0.993581
1.05944
1.117189
1.191159
1.267401
1.348184
1.351753
1.317039
1.273241
1.203488
1.151903
1.081502
1.04257
0.992607
0.944267
0.933561
0.947187
0.995203
1.038028
1.097723
1.159041
1.240149
1.302764
1.281027
1.251179
1.195053
1.147686
1.101616
1.041272
0.984172
0.930965
0.877434
0.840449
0.852777
0.881976
0.901766
0.923503
0.941347
0.987416
1.017913
0.983199
0.945565
0.878407
0.810601
0.738902
0.675313
0.612049
0.551705
0.519586
0.494929
0.520235
0.559816
0.590312
0.644168
0.723978
0.794704
0.775238
0.723005
0.662011
0.604911
0.563384
0.494929
0.440425
0.373592
0.308381
0.289564
0.301244
0.355748
0.415119
0.484547
0.573442
0.676611
0.773616
0.784322
0.787242
0.75123
0.709703
0.658443
0.595827
0.525101
0.476112
0.442371
0.444318
0.485196
0.546514
0.609454
0.706459
0.793731
0.900144
0.980928
0.992607
1.00234
0.972492
0.928045
0.887491
0.862186
0.829743
0.789837
0.800868
0.834285
0.933236
1.047761
1.161312
1.270645
1.387116
1.451354
1.410151
1.344616
1.261561
1.166827
1.086368
1.005909
0.955622
0.915068
0.867377
0.872568
0.900793
0.970546
1.044192
1.132437
1.218736
1.321905
1.408853
1.40788
1.408204
1.366677
1.322879
1.271618
1.202515
1.120758
1.062036
1.036081
1.043219
1.095128
1.174289
1.248259
1.33618
1.391334
1.455247
1.486717
1.449407
1.396849
1.327096
1.258641
1.204137
1.158067
1.104861
1.049707
1.03965
1.035432
1.077608
1.131464
1.186617
1.258641
1.350131
1.419884
1.425399
1.406907
1.367975
1.315741
1.271294
1.208354
1.16488
1.109403
1.058791
1.051978
1.063333
1.104861
1.148334
1.199595
1.255721
1.328394
1.400093
1.386792
1.377708
1.345264
1.301142
1.263183
1.199595
1.120758
1.059765
1.014669
0.999096
1.01694
1.053276
1.089937
1.152876
1.202515
1.283622
1.348509
1.363108
1.372841
1.346887
1.279405
1.169098
1.062036
0.974439
0.911824
0.897549
0.8969
0.941671
1.003314
1.07112
1.159041
1.265779
1.334883
1.327096
1.292707
1.25053
1.205434
1.168449
1.091883
1.026997
0.933236
0.843693
0.824227
0.83396
0.882625
0.935183
1.003638
1.083773
1.17656
1.259615
1.250206
1.2249
1.165854
1.109727
1.0536
0.976061
0.887816
0.819361
0.780429
0.776211
0.804437
0.848884
0.893331
0.969897
1.034783
1.11946
1.184022
1.189213
1.181751
1.136979
1.081826
1.015642
0.968275
0.904362
0.840773
0.819361
0.817414
0.857319
0.902415
0.954
1.026024
1.127246
1.216141
1.231713
1.22198
1.192133
1.149308
1.111998
1.03965
0.977035
0.912473
0.864457
0.858617
0.882301
0.938752
1.000718
1.07112
1.134708
1.220034
1.28784
1.260263
1.231065
1.196026
1.162285
1.132437
1.082475
1.008829
0.929343
0.865106
0.845964
0.879381
0.932263
0.977359
1.0682
1.155796
1.244366
1.304711
1.310875
1.289138
1.206083
1.109403
1.033161
0.981901
0.921881
0.859915
0.852128
0.84564
0.859266
0.873865
0.882949
0.949782
1.071769
1.162934
1.181751
1.168774
1.13925
1.101292
1.068849
0.997149
0.932912
0.849857
0.7827
0.757394
0.763234
0.805735
0.844991
0.910526
0.978981
1.064307
1.140224
1.136979
1.130166
1.099021
1.056196
1.009802
0.953351
0.878407
0.829094
0.809303
0.809303
0.8398
0.904362
0.963084
1.050032
1.134384
1.234633
1.290111
1.278107
1.253775
1.208679
1.155472
1.084421
1.016291
0.932263
0.844666
0.814494
0.796002
0.817414
0.85667
0.903389
0.973141
1.066253
1.156445
1.178507
1.190835
1.175587
1.150281
1.128544
1.086044
1.059765
0.998447
0.942969
0.933561
0.957569
0.997149
1.046463
1.079555
1.116865
1.186617
1.253775
1.240473
1.212572
1.161312
1.113945
1.077608
1.025699
0.965355
0.912473
0.894953
0.888465
0.926748
0.98839
1.04549
1.137628
1.221007
1.321905
1.372517
1.370246
1.334883
1.280054
1.215816
1.142495
1.08215
1.004936
0.941996
0.933885
0.940049
0.98255
1.036081
1.088639
1.161636
1.266428
1.356944
1.365379
1.350131
1.303088
1.24242
1.187591
1.115242
1.056845
0.980928
0.92545
0.915393
0.939076
0.984172
1.029268
1.091559
1.158392
1.239824
1.30244
1.2966
1.294978
1.264157
1.226847
1.184346
1.117838
1.04841
1.00234
0.995527
0.995203
1.028295
1.080853
1.133735
1.208354
1.278432
1.363433
1.384845
1.357917
1.31055
1.261561
1.215816
1.177209
1.151579
1.110376
1.044841
1.004936
0.989363
1.018562
1.07404
1.136006
1.212896
1.298871
1.362459
1.35078
1.337154
1.29952
1.252801
1.208354
1.14217
1.083124
1.014993
0.975737
0.964382
0.984172
1.023753
1.068524
1.143468
1.214519
1.30763
1.377059
1.357268
1.337478
1.292707
1.244366
1.195701
1.13633
1.060738
0.998123
0.965355
0.953351
0.976061
1.017913
1.052952
1.124975
1.199595
1.27908
1.309577
1.297249
1.264157
1.216465
1.164556
1.109403
1.067551
1.013046
0.951729
0.941671
0.946214
0.982225
1.023104
1.076959
1.150605
1.243717
1.31931
1.308279
1.294978
1.263508
1.207381
1.15093
1.080204
1.018237
0.952702
0.91085
0.903713
0.92545
0.961137
0.995852
1.031863
1.070471
1.132113
1.163258
1.1107
1.071769
1.01402
0.94816
0.872243
0.792757
0.693481
0.599072
0.5543
0.550731
0.595503
0.662336
0.713596
0.791784
0.873865
0.941671
0.944591
0.909553
0.863483
0.796326
0.727222
0.632488
0.54846
0.469948
0.383649
0.350882
0.34634
0.382676
0.431989
0.483574
0.547487
0.616915
0.669149
0.626973
0.572793
0.493307
0.413497
0.316492
0.212349
0.105611
-0.003722
-0.088723
-0.155556
-0.191568
-0.217198
-0.240882
-0.25613
-0.28176
-0.309986
-0.347295
-0.452087
-0.49037
-0.505618
-0.508538
-0.500427
-0.500751
-0.507564
-0.508213
-0.505618
-0.521191
-0.519568
-0.520866
-0.535141
-0.534817
-0.536763
-0.534492
-0.530275
-0.522813
-0.52411
-0.517946
-0.510484
-0.510484
-0.506591
-0.503996
-0.517946
-0.514378
-0.520217
-0.523786
-0.530924
-0.537737
-0.54455
-0.539683
-0.533843
-0.54163
-0.52703
-0.526706
-0.523462
-0.512755
-0.517297
-0.515675
-0.523137
-0.521515
-0.531572
-0.529301
-0.537088
-0.546821
-0.545847
-0.550065
-0.557202
-0.540981
-0.547145
-0.533195
-0.532221
-0.525408
-0.516324
-0.514702
-0.512106
-0.515026
-0.50724
-0.527355
-0.527679
-0.533195
-0.540008
-0.540008
-0.542603
-0.538385
-0.535141
-0.524435
-0.531248
-0.517946
-0.512106
-0.51016
-0.505942
-0.501076
-0.518595
-0.513729
-0.520542
-0.517946
-0.522813
-0.534168
-0.539359
-0.53287
-0.526381
-0.534817
-0.519244
-0.519893
-0.511458
-0.500427
-0.503671
-0.499454
-0.506591
-0.503996
-0.514053
-0.511133
-0.514378
-0.525733
-0.523462
-0.528328
-0.536114
-0.27592
0.413821
1.198621
2.018461
2.490509
2.681275
2.750704
2.778605
2.786392
2.796125
2.785743
2.786392
2.780227
2.772117
2.776659
2.771792
2.782823
2.780876
2.790609
2.786067
2.790609
2.800991
2.795151
2.802289
2.803262
2.788338
2.788987
2.780876
2.778605
2.775036
2.767899
2.761735
2.763357
2.77017
2.76433
2.780552
2.779903
2.788338
2.797747
2.79288
2.799369
2.794502
2.793205
2.783147
2.780227
2.77601
2.76725
2.770494
2.76141
2.757517
2.774063
2.771792
2.778281
2.779578
2.786067
2.793529
2.799369
2.794502
2.792231
2.795476
2.780227
2.778281
2.772765
2.761735
2.766601
2.760113
2.762708
2.766601
2.773414
2.77893
2.78185
2.791582
2.789636
2.7958
2.798396
2.784769
2.784121
2.777632
2.779254
2.774388
2.767574
2.759139
2.76141
2.773739
2.76141
2.775036
2.773739
2.786392
2.792556
2.796773
2.795476
2.795476
2.78704
2.783796
2.77893
2.773739
2.759788
2.766277
2.759788
2.75849
2.769197
2.767899
2.777956
2.775685
2.780552
2.788338
2.7958
2.796773
2.79288
2.793205
2.77893
2.779903
2.771143
2.761735
2.76433
2.759788
2.760761
2.76433
2.77601
2.778605
2.778605
2.672191
2.520681
2.37566
2.218311
2.083023
2.006781
1.960712
1.95325
1.95325
1.951303
1.956494
1.979204
1.980178
1.880901
1.793629
1.673589
1.560687
1.443892
1.309253
1.168774
1.035432
0.915393
0.825525
0.763883
0.714569
0.650332
0.612049
0.580255
0.562735
0.53451
0.434585
0.329145
0.20067
0.07771
-0.043303
-0.149392
-0.255481
-0.352811
-0.408937
-0.454033
-0.452735
-0.451762
-0.438136
-0.407315
-0.357353
-0.303821
-0.302199
-0.324261
-0.37617
-0.446571
-0.47577
-0.495236
-0.494587
-0.499454
-0.508538
-0.51308
-0.516649
-0.518595
-0.523137
-0.530924
-0.537412
-0.539034
-0.527355
-0.536439
-0.522164
-0.521191
-0.512106
-0.503996
-0.503671
-0.509187
-0.503022
-0.508862
-0.515351
-0.516973
-0.522813
-0.537088
-0.531572
-0.537088
-0.540656
-0.528653
-0.526057
-0.520542
-0.520866
-0.511458
-0.509511
-0.500427
-0.5014
-0.506916
-0.504969
-0.517297
-0.521515
-0.523786
-0.540008
-0.536114
-0.530924
-0.534492
-0.530924
-0.524759
-0.518595
-0.517946
-0.501725
-0.509187
-0.499129
-0.5014
-0.505293
-0.513729
-0.518271
-0.519568
-0.50724
-0.327829
-0.145174
0.032614
0.178608
0.237331
0.311625
0.372294
0.439127
0.51991
0.589014
0.652927
0.743444
0.836556
0.952378
1.090261
1.235931
1.349482
1.481526
1.588264
1.694353
1.747235
1.727445
1.701166
1.648284
1.594428
1.541546
1.504236
1.467251
1.448758
1.473739
1.51332
1.5821
1.652177
1.731663
1.834832
1.95033
2.047011
2.073614
2.055121
2.011323
1.927944
1.852027
1.778057
1.748858
1.70441
1.653799
1.658341
1.692731
1.745613
1.791683
1.859489
1.930215
2.028842
2.105733
2.077183
2.023651
1.941895
1.888688
1.848458
1.799145
1.742369
1.700842
1.67067
1.676509
1.722579
1.791683
1.853649
1.950005
2.041495
2.139474
2.20728
2.205982
2.182948
2.135905
2.082698
2.016838
1.958116
1.905558
1.878955
1.895825
1.935082
2.011323
2.089836
2.173863
2.275411
2.392855
2.484994
2.51841
2.521655
2.4957
2.444764
2.399668
2.332835
2.281575
2.219933
2.171268
2.177108
2.20436
2.262433
2.320182
2.385069
2.444115
2.528468
2.594652
2.573888
2.543392
2.480127
2.414268
2.35587
2.285144
2.207929
2.156669
2.108653
2.097298
2.125848
2.181325
2.235181
2.312072
2.362683
2.420432
2.427569
2.362683
2.288388
2.205009
2.141745
2.058366
1.979204
1.90718
1.844241
1.826072
1.829641
1.871817
1.914318
1.93865
1.986666
2.074587
2.162508
2.163806
2.132336
2.071019
1.9818
1.90718
1.795251
1.692406
1.575935
1.476984
1.418586
1.408204
1.451354
1.508454
1.577558
1.660937
1.76735
1.855271
1.847485
1.825099
1.754049
1.653475
1.551603
1.466602
1.39036
1.338127
1.300817
1.278107
1.300817
1.332936
1.363757
1.42767
1.483148
1.547385
1.565554
1.526297
1.486068
1.423777
1.360188
1.291409
1.217763
1.135033
1.066253
1.043219
1.04257
1.084421
1.153201
1.213221
1.290436
1.370895
1.440647
1.431563
1.405284
1.34786
1.271294
1.206732
1.125624
1.06236
0.995852
0.947511
0.947511
0.986767
1.048734
1.126273
1.198946
1.253775
1.320608
1.352078
1.30244
1.266752
1.198946
1.13925
1.099345
1.046138
0.978332
0.92837
0.905984
0.906957
0.940049
0.990336
1.028619
1.104861
1.177858
1.269996
1.330665
1.327421
1.284596
1.223278
1.167476
1.101941
1.030566
0.963084
0.914095
0.906308
0.903713
0.946538
1.007531
1.072742
1.152876
1.240473
1.316066
1.314119
1.2966
1.259615
1.208354
1.169098
1.111025
1.065604
1.005585
0.971195
0.970546
1.001691
1.062684
1.137304
1.223927
1.311199
1.415017
1.494179
1.487366
1.469846
1.427021
1.366353
1.311848
1.231389
1.158392
1.110052
1.094803
1.102265
1.151254
1.211923
1.274214
1.361486
1.446163
1.53311
1.579504
1.567825
1.533759
1.476335
1.429617
1.37057
1.329692
1.286542
1.244042
1.234309
1.228469
1.263508
1.300493
1.360513
1.428968
1.525649
1.612596
1.626547
1.63044
1.602863
1.527271
1.451354
1.356944
1.287191
1.221332
1.174289
1.161636
1.189862
1.249233
1.312172
1.37933
1.455247
1.53603
1.593779
1.57626
1.554523
1.511374
1.45914
1.38517
1.30244
1.225874
1.174613
1.160663
1.151579
1.178831
1.210625
1.233984
1.290111
1.347536
1.420208
1.43935
1.401716
1.348184
1.295302
1.250206
1.195701
1.145415
1.088639
1.038028
1.032837
1.042245
1.082799
1.127895
1.17948
1.247611
1.335207
1.40496
1.406582
1.393605
1.351429
1.289138
1.237229
1.166827
1.112971
1.05944
1.020833
1.012398
1.044841
1.095777
1.155148
1.229442
1.305035
1.389387
1.448109
1.414693
1.393605
1.336505
1.283298
1.21679
1.146388
1.073391
1.012722
0.975412
0.958866
0.977683
0.998447
1.049383
1.128544
1.232038
1.323203
1.345589
1.334883
1.304062
1.257992
1.215816
1.163583
1.123029
1.083124
1.035108
1.024402
1.013371
1.049383
1.092857
1.14801
1.217114
1.2966
1.356295
1.341047
1.32807
1.283622
1.228794
1.178831
1.122055
1.077284
1.032188
1.011424
1.026997
1.072093
1.119784
1.174613
1.245664
1.308604
1.375112
1.427995
1.411124
1.39036
1.344616
1.294329
1.243393
1.188888
1.115891
1.065604
1.043219
1.040299
1.087666
1.144766
1.207705
1.295626
1.385818
1.47082
1.501641
1.492232
1.456545
1.410151
1.361162
1.296275
1.24242
1.189537
1.130491
1.134384
1.15385
1.207381
1.260912
1.313795
1.376734
1.458816
1.537328
1.540897
1.53895
1.498072
1.441621
1.386467
1.310875
1.228794
1.151903
1.102914
1.095128
1.133086
1.19343
1.260912
1.31931
1.372517
1.428319
1.47601
1.443892
1.410151
1.35078
1.300493
1.249557
1.198297
1.137304
1.09091
1.081502
1.085395
1.138277
1.197324
1.256046
1.336829
1.4108
1.492232
1.514618
1.476659
1.394903
1.324176
1.271943
1.201217
1.147686
1.086692
1.022779
1.021157
1.037054
1.087017
1.147686
1.208679
1.278107
1.354024
1.425075
1.408853
1.381276
1.3391
1.27908
1.228145
1.168125
1.10778
1.04257
1.009478
1.002016
1.034459
1.079231
1.134708
1.206083
1.276809
1.357268
1.415342
1.394903
1.378032
1.328718
1.280054
1.226847
1.168449
1.101941
1.048734
1.025699
1.02505
1.06528
1.114594
1.161636
1.229442
1.305359
1.382574
1.41372
1.410475
1.373166
1.320932
1.271294
1.203812
1.151579
1.095452
1.046787
1.057169
1.080853
1.13925
1.221007
1.302115
1.383547
1.484446
1.55355
1.526297
1.489312
1.4108
1.326772
1.257019
1.17656
1.108105
1.032188
0.971195
0.955946
0.989687
1.058467
1.123678
1.211274
1.304386
1.411773
1.49353
1.497099
1.505858
1.463682
1.401067
1.329692
1.26513
1.160014
1.07404
1.043219
1.023104
1.04549
1.081177
1.132113
1.21679
1.307955
1.406582
1.442594
1.437728
1.412097
1.367975
1.317363
1.248259
1.182075
1.114594
1.053276
1.04257
1.044516
1.088315
1.142495
1.197324
1.263183
1.349807
1.437403
1.435457
1.43351
1.394903
1.337478
1.285245
1.218736
1.162285
1.09091
1.046787
1.040299
1.064631
1.119784
1.178831
1.269672
1.3537
1.441621
1.490934
1.471793
1.45038
1.400742
1.349158
1.301142
1.257019
1.193106
1.135682
1.11946
1.117189
1.161312
1.217114
1.274863
1.359215
1.447136
1.523702
1.526622
1.483797
1.432861
1.387765
1.337803
1.263832
1.204461
1.127571
1.043219
1.018237
1.016291
1.070795
1.134708
1.216141
1.300493
1.397174
1.481201
1.478606
1.457518
1.415342
1.358566
1.283622
1.215492
1.164232
1.111349
1.068849
1.067227
1.092532
1.142819
1.187915
1.261561
1.334558
1.420533
1.466602
1.442594
1.40496
1.342669
1.294004
1.244691
1.19635
1.134059
1.077284
1.062036
1.052303
1.088963
1.131464
1.173316
1.237878
1.305684
1.382574
1.406258
1.39328
1.361811
1.311524
1.27097
1.211599
1.170396
1.127571
1.084421
1.083773
1.094803
1.129517
1.17072
1.220358
1.280054
1.368299
1.447785
1.437079
1.429941
1.3962
1.345264
1.290436
1.234309
1.182075
1.100643
1.021806
0.990985
1.011424
1.077608
1.136655
1.226198
1.305035
1.393605
1.424426
1.391983
1.360188
1.320932
1.29368
1.269672
1.24242
1.186942
1.11362
1.044516
0.987416
0.988065
1.020833
1.067875
1.147037
1.244042
1.337803
1.379005
1.37933
1.362784
1.337154
1.30763
1.250855
1.20511
1.138602
1.088315
1.070471
1.07112
1.104861
1.14801
1.195701
1.250206
1.330989
1.412097
1.417937
1.425075
1.409502
1.366677
1.319634
1.259939
1.194079
1.136979
1.089612
1.084746
1.104212
1.148659
1.181426
1.255397
1.321581
1.402689
1.441945
1.417613
1.381276
1.328394
1.276485
1.220683
1.174938
1.11362
1.060413
1.054574
1.060738
1.108754
1.166503
1.236255
1.32515
1.416315
1.506831
1.530839
1.495801
1.432212
1.371219
1.341047
1.267076
1.200892
1.118811
1.064956
1.060738
1.086692
1.148983
1.216141
1.281351
1.344291
1.434159
1.517862
1.502614
1.460762
1.393605
1.317688
1.245015
1.169747
1.106158
1.061711
1.024077
1.025375
1.054898
1.108105
1.155148
1.240149
1.320283
1.415666
1.45914
1.433185
1.399769
1.3391
1.283622
1.221332
1.164556
1.088963
1.021806
1.00234
1.003962
1.046138
1.092208
1.143144
1.213221
1.303413
1.378681
1.411124
1.401391
1.369921
1.314768
1.27097
1.192457
1.134384
1.067227
1.01694
1.009802
1.027321
1.077933
1.132762
1.20511
1.28492
1.387116
1.471144
1.460762
1.444216
1.394254
1.326772
1.262859
1.184022
1.098696
1.037379
1.000069
0.994878
1.049058
1.13633
1.209976
1.315092
1.406258
1.489961
1.527271
1.492881
1.446487
1.377383
1.289787
1.196999
1.117513
1.034783
0.968275
0.944916
0.937454
0.993256
1.063658
1.131788
1.217114
1.315417
1.391658
1.406907
1.392632
1.353375
1.30244
1.257668
1.17948
1.117838
1.046138
1.002016
1.006882
1.036406
1.091883
1.152552
1.21387
1.282
1.355971
1.424426
1.410151
1.391334
1.343642
1.280054
1.234633
1.184346
1.124975
1.077284
1.048734
1.043867
1.087017
1.142495
1.189537
1.281027
1.343318
1.413071
1.422804
1.381276
1.337154
1.283947
1.228145
1.167476
1.118162
1.051329
0.9965
0.985794
0.993905
1.044516
1.102265
1.154174
1.227171
1.316714
1.397822
1.415017
1.415666
1.38225
1.339749
1.306008
1.235282
1.180453
1.1107
1.060738
1.045814
1.057818
1.102265
1.169098
1.238202
1.305035
1.387116
1.45622
1.440972
1.414693
1.359864
1.286867
1.226847
1.153525
1.075337
1.017588
0.989039
0.995527
1.036406
1.09383
1.158392
1.272592
1.360188
1.460113
1.512022
1.490934
1.446812
1.380952
1.303413
1.226847
1.156121
1.072417
0.992932
0.969573
0.961137
0.99942
1.050356
1.101616
1.184995
1.27389
1.349158
1.356944
1.333261
1.277458
1.215167
1.159365
1.08215
1.023428
0.956271
0.921881
0.922206
0.958866
1.014993
1.074364
1.133086
1.203812
1.298871
1.380628
1.374463
1.366353
1.331314
1.272916
1.22198
1.151254
1.077284
1.017913
0.979954
0.968599
1.007531
1.076635
1.13633
1.229442
1.303413
1.397174
1.435781
1.407555
1.367001
1.307955
1.237878
1.165529
1.10778
1.057169
1.006882
0.999745
1.00818
1.04257
1.080528
1.111025
1.168774
1.247935
1.32807
1.346887
1.346887
1.323528
1.296924
1.267725
1.196675
1.127571
1.032512
0.969897
0.940049
0.950431
0.987416
1.030566
1.092857
1.173316
1.275187
1.365055
1.368624
1.366353
1.328718
1.280378
1.24242
1.194728
1.141197
1.095128
1.064631
1.047112
1.06236
1.101941
1.14217
1.218736
1.281351
1.362135
1.380952
1.349158
1.306657
1.255721
1.200568
1.14509
1.098372
1.047436
0.990985
0.986443
0.989363
1.034459
1.078906
1.124327
1.197648
1.28492
1.360513
1.363757
1.346238
1.304711
1.252477
1.206083
1.129193
1.063658
0.9965
0.957244
0.957244
0.984496
1.037054
1.098048
1.168449
1.248908
1.338451
1.40496
1.379979
1.357268
1.302115
1.246313
1.186942
1.106483
1.038028
0.984172
0.961462
0.967626
1.01402
1.077284
1.130815
1.195053
1.268699
1.363757
1.381925
1.347211
1.301142
1.209976
1.116865
1.041272
0.998771
0.964057
0.910202
0.918637
0.93129
0.97087
1.007207
1.049383
1.115891
1.20219
1.280703
1.301142
1.303088
1.277458
1.241122
1.205434
1.140224
1.088639
1.029592
0.997798
0.993581
1.015317
1.054898
1.107456
1.163258
1.224251
1.292058
1.3537
1.338776
1.332612
1.298871
1.254099
1.201541
1.137628
1.065604
1.005909
0.976061
0.966004
0.995527
1.039001
1.083124
1.155796
1.234958
1.330016
1.37349
1.363757
1.335207
1.291084
1.236904
1.181751
1.127895
1.075337
1.00818
1.00234
1.005585
1.052952
1.097074
1.151579
1.229442
1.323203
1.403662
1.411773
1.403987
1.358242
1.310875
1.265454
1.187591
1.124327
1.06236
1.037703
1.015966
1.010127
1.036406
1.090586
1.162609
1.22198
1.288489
1.347211
1.310875
1.287191
1.245664
1.201541
1.163907
1.118162
1.067875
1.045165
1.029917
0.999745
1.004287
1.04841
1.101292
1.189537
1.281351
1.374139
1.382899
1.337478
1.270321
1.201866
1.150281
1.106807
1.066578
1.014344
0.947187
0.940374
0.940698
0.987416
1.029917
1.081177
1.15677
1.255721
1.333261
1.333261
1.321257
1.277458
1.229442
1.183698
1.112323
1.041921
0.974115
0.950107
0.960813
0.999745
1.061711
1.119136
1.193755
1.255397
1.32515
1.386467
1.359864
1.335207
1.274538
1.209328
1.146712
1.087341
1.018562
0.971844
0.943943
0.944916
0.989039
1.053925
1.110052
1.196999
1.290436
1.385494
1.416964
1.397174
1.363108
1.308604
1.25637
1.185644
1.137628
1.091559
1.040623
1.04549
1.04841
1.089937
1.127571
1.180129
1.237229
1.324825
1.386143
1.389063
1.38225
1.342669
1.284271
1.215167
1.147037
1.087017
1.021482
0.98839
0.994554
1.017588
1.070795
1.127571
1.200244
1.27908
1.366353
1.435457
1.422479
1.413395
1.372192
1.306333
1.209003
1.113945
1.018886
0.949133
0.915717
0.894629
0.926748
0.983523
1.044192
1.128544
1.223603
1.312172
1.34494
1.332936
1.305035
1.260912
1.217438
1.155472
1.107456
1.062036
1.002989
1.002016
1.009153
1.055223
1.101616
1.15969
1.222629
1.309253
1.379005
1.373166
1.360513
1.312172
1.264805
1.214194
1.14509
1.075662
1.007856
0.976386
0.975412
1.001042
1.0536
1.114269
1.192133
1.276161
1.368299
1.448758
1.425399
1.411773
1.361486
1.306008
1.240473
1.173965
1.085719
1.014344
0.970221
0.954
0.982874
1.032188
1.081177
1.160338
1.264481
1.360513
1.391983
1.394578
1.384196
1.348833
1.306657
1.244366
1.172342
1.07112
0.972817
0.957244
0.959515
0.990985
1.02797
1.07404
1.138277
1.236904
1.321581
1.333585
1.328394
1.287191
1.2395
1.189862
1.117189
1.050032
0.986119
0.954
0.951729
0.981577
1.042245
1.101616
1.179804
1.257992
1.344616
1.427346
1.423128
1.411773
1.35662
1.29076
1.221332
1.148334
1.049707
0.972492
0.93129
0.915393
0.947836
1.002016
1.054574
1.138602
1.224576
1.323203
1.350455
1.336505
1.304062
1.254424
1.207057
1.147037
1.096101
1.040948
0.979306
0.983848
1.007531
1.066253
1.115891
1.167151
1.218087
1.306657
1.374463
1.374139
1.372841
1.332287
1.268374
1.20511
1.117838
1.047436
0.986443
0.96276
0.980603
1.020833
1.085395
1.146712
1.212572
1.269996
1.346238
1.399445
1.385494
1.369597
1.326772
1.261237
1.191808
1.128869
1.04841
0.979306
0.947187
0.943943
0.984821
1.043543
1.091234
1.17656
1.268374
1.350455
1.361811
1.349807
1.32223
1.266103
1.211274
1.137304
1.098696
1.04841
1.00526
1.009802
1.024402
1.072742
1.116216
1.169098
1.221332
1.312172
1.380952
1.363757
1.342345
1.294653
1.235607
1.19343
1.13114
1.075337
1.008829
0.973141
0.96795
0.993256
1.052952
1.112323
1.193106
1.264157
1.345264
1.4108
1.395227
1.375761
1.327745
1.267401
1.207381
1.150281
1.084746
1.038028
1.021157
1.014993
1.059116
1.115567
1.155796
1.234958
1.324501
1.428319
1.447136
1.41372
1.363433
1.304062
1.254099
1.173316
1.118811
1.043219
0.978008
0.971519
0.98839
1.038028
1.079231
1.135682
1.175911
1.231389
1.288489
1.290111
1.282
1.250206
1.206408
1.171045
1.105834
1.039325
0.977035
0.946214
0.960164
1.000069
1.063658
1.109403
1.184995
1.238851
1.314119
1.360188
1.33618
1.297573
1.233984
1.173316
1.110376
1.063658
1.001367
0.943294
0.92837
0.935507
0.983848
1.046463
1.111998
1.211923
1.304711
1.405609
1.423128
1.397174
1.352402
1.290436
1.234633
1.15093
1.091234
1.022779
0.963084
0.950756
0.969248
1.020508
1.072742
1.138277
1.207381
1.298871
1.374463
1.361162
1.341047
1.294329
1.243393
1.197324
1.129193
1.064631
0.997474
0.966977
0.971519
0.997149
1.049707
1.097723
1.173965
1.238526
1.328718
1.389712
1.380952
1.360837
1.318012
1.261886
1.207381
1.162285
1.117513
1.063658
1.055223
1.060089
1.09675
1.13925
1.176884
1.249233
1.333909
1.414368
1.419235
1.400093
1.344291
1.286542
1.234958
1.15677
1.101616
1.043543
0.998771
0.982874
0.992932
1.036081
1.089612
1.152228
1.220358
1.300168
1.374788
1.354997
1.331963
1.293031
1.243393
1.199595
1.138926
1.077933
1.006558
0.973141
0.968275
0.995203
1.038028
1.076311
1.145415
1.205759
1.280378
1.328718
1.315417
1.29368
1.248259
1.180778
1.119784
1.067227
1.009478
0.960489
0.952378
0.965031
1.005909
1.064307
1.117838
1.197972
1.284596
1.37057
1.38225
1.372192
1.350131
1.308279
1.263183
1.186942
1.136979
1.06528
1.001042
0.98839
1.003638
1.046787
1.103887
1.162285
1.223603
1.310875
1.397822
1.384521
1.357917
1.311848
1.266428
1.225225
1.160338
1.105185
1.057818
1.023104
1.006233
1.020508
1.052303
1.089937
1.177209
1.25637
1.343318
1.379979
1.358566
1.330341
1.286218
1.228145
1.174613
1.127571
1.064307
1.013046
0.994554
0.991958
1.021806
1.061387
1.09967
1.174289
1.250855
1.335207
1.342345
1.32223
1.280703
1.231065
1.19343
1.133411
1.097723
1.059116
1.034459
1.03381
1.053276
1.09383
1.139575
1.184346
1.234309
1.300493
1.362459
1.333585
1.300168
1.254099
1.201866
1.167476
1.108429
1.04549
0.996825
0.971844
0.978008
1.017588
1.07112
1.12238
1.212247
1.282
1.368624
1.422479
1.404311
1.365704
1.310875
1.241122
1.178182
1.120433
1.056845
0.993581
0.980603
0.982874
1.033161
1.104861
1.18532
1.307306
1.432861
1.507156
1.495476
1.451029
1.360513
1.263183
1.191484
1.106807
1.046138
0.976386
0.93129
0.936156
0.965031
1.023104
1.079879
1.138277
1.20219
1.289462
1.366677
1.341047
1.304711
1.244691
1.201217
1.159365
1.104212
1.047112
1.002665
0.97087
0.972492
1.0111
1.066902
1.121082
1.201541
1.27908
1.354024
1.381601
1.336829
1.293031
1.243069
1.174938
1.114594
1.057818
1.002016
0.938103
0.936481
0.943294
1.006558
1.071769
1.135033
1.226847
1.323528
1.403338
1.404635
1.377059
1.319634
1.253126
1.209003
1.137628
1.089288
1.027321
0.980279
0.974764
0.994878
1.047112
1.11654
1.187915
1.256695
1.319959
1.372841
1.338451
1.308279
1.254424
1.204461
1.162285
1.117513
1.071769
1.032837
1.012722
1.000394
1.02505
1.077933
1.12822
1.195377
1.252801
1.325474
1.370246
1.349158
1.309253
1.257992
1.197324
1.146388
1.095452
1.032512
0.969573
0.96795
0.978008
1.035757
1.101616
1.172018
1.281027
1.389387
1.468873
1.461411
1.431888
1.366677
1.295302
1.214194
1.115242
1.038352
0.959191
0.900469
0.895278
0.92545
0.984172
1.043543
1.105509
1.181102
1.268374
1.354349
1.343642
1.330665
1.282649
1.235931
1.187591
1.121407
1.054249
1.003962
0.984172
0.983523
1.022779
1.076311
1.129193
1.20511
1.272592
1.348184
1.382899
1.362135
1.325474
1.273565
1.203812
1.146063
1.107132
1.060413
1.004287
0.992607
0.990012
1.032837
1.092532
1.148334
1.229442
1.319634
1.395227
1.39036
1.375761
1.332287
1.279405
1.215816
1.125624
1.06528
1.006882
0.96795
0.97963
1.022455
1.080853
1.136979
1.191159
1.241446
1.302115
1.353051
1.329367
1.308279
1.260912
1.21679
1.172667
1.113296
1.050356
1.004611
0.985145
0.991958
1.029268
1.071444
1.110052
1.182075
1.255721
1.333909
1.37933
1.358242
1.317688
1.258641
1.18824
1.127571
1.083773
1.041596
0.996825
1.017588
1.029268
1.080853
1.135033
1.183049
1.248259
1.330341
1.387765
1.364082
1.326772
1.267076
1.205434
1.151254
1.086044
1.040948
0.981252
0.940049
0.941347
0.966977
1.023104
1.083124
1.154823
1.229767
1.317039
1.395227
1.387441
1.376086
1.327096
1.280378
1.230416
1.1678
1.090586
1.041272
1.013046
1.010127
1.047436
1.102914
1.158067
1.237878
1.314768
1.389712
1.420208
1.392307
1.366353
1.324501
1.277783
1.222305
1.166178
1.100643
1.024077
1.012398
1.008504
1.056196
1.099994
1.140548
1.219061
1.31639
1.389712
1.366677
1.331638
1.281027
1.222954
1.172342
1.102265
1.041596
0.971844
0.92837
0.930641
0.956595
1.011749
1.063658
1.129193
1.196026
1.27908
1.357917
1.346562
1.332287
1.288813
1.242744
1.19635
1.139899
1.073391
1.020833
0.993256
0.980928
1.012073
1.052303
1.100319
1.169098
1.236255
1.314119
1.351429
1.337154
1.323528
1.278756
1.225549
1.166827
1.118811
1.066253
1.002016
0.993905
0.990336
1.031863
1.078906
1.139575
1.211599
1.30244
1.372517
1.365379
1.348184
1.301466
1.250855
1.18532
1.118162
1.06236
1.010451
0.97671
0.998447
1.037703
1.099345
1.146063
1.202515
1.247611
1.308604
1.369272
1.364082
1.355971
1.310875
1.247286
1.183698
1.111349
1.037703
0.986443
0.966977
0.970546
1.004287
1.047436
1.089288
1.154823
1.226522
1.31931
1.368299
1.364082
1.33618
1.282649
1.228145
1.166178
1.115242
1.064956
1.002016
0.997798
0.992607
1.042245
1.101616
1.166827
1.234958
1.326447
1.394254
1.385818
1.36473
1.320608
1.275187
1.218736
1.146388
1.083448
1.012722
0.965679
0.959191
0.976061
1.023753
1.069822
1.141521
1.204786
1.281676
1.352726
1.340074
1.326772
1.282974
1.237229
1.18824
1.124002
1.047436
1.001691
0.990985
1.000394
1.037703
1.096425
1.15677
1.238202
1.322554
1.414693
1.454598
1.441621
1.410475
1.349158
1.282325
1.201866
1.135357
1.06236
0.988065
0.975737
0.969897
1.009153
1.069173
1.149957
1.246313
1.366353
1.447785
1.438376
1.420533
1.398147
1.34494
1.29368
1.204137
1.110376
1.021157
0.966004
0.952378
0.96795
1.011749
1.046787
1.102265
1.15677
1.231065
1.304711
1.297897
1.290436
1.250206
1.218087
1.17656
1.1253
1.054249
1.006233
0.990661
1.001042
1.045814
1.092208
1.138602
1.205434
1.282649
1.354997
1.386143
1.367001
1.331314
1.271618
1.20803
1.132113
1.073715
1.012722
0.953351
0.949458
0.961137
1.009153
1.064956
1.129517
1.203163
1.298546
1.367326
1.354024
1.335207
1.295626
1.247935
1.218736
1.181751
1.145739
1.099994
1.067875
1.058142
1.072742
1.095128
1.119784
1.169423
1.211274
1.27097
1.323203
1.29952
1.285245
1.241122
1.196999
1.141197
1.089612
1.013371
0.961786
0.9394
0.944591
0.990012
1.051329
1.097074
1.174613
1.276485
1.376086
1.405284
1.395551
1.371543
1.313146
1.246313
1.162285
1.117838
1.069822
1.021157
1.020184
1.027646
1.07112
1.115567
1.162609
1.216141
1.295302
1.354349
1.34786
1.318012
1.26805
1.192782
1.12822
1.061711
1.005909
0.956595
0.929992
0.941023
0.979954
1.045165
1.111349
1.185969
1.25053
1.324501
1.380303
1.355971
1.330016
1.26805
1.197648
1.122704
1.062036
0.99131
0.941347
0.926748
0.929992
0.974439
1.033161
1.092857
1.182075
1.274538
1.363757
1.387441
1.363433
1.327096
1.276161
1.228794
1.165854
1.121731
1.079555
1.041921
1.051005
1.069822
1.117189
1.153201
1.196675
1.248259
1.324501
1.386143
1.366353
1.332612
1.278432
1.225549
1.179804
1.101616
1.028944
0.944267
0.901442
0.894629
0.931939
0.987741
1.051654
1.14217
1.228794
1.330341
1.406258
1.40204
1.388089
1.361162
1.314768
1.260912
1.213221
1.141197
1.054898
0.978657
0.941347
0.975412
1.046138
1.113296
1.197972
1.274214
1.360188
1.389712
1.379979
1.336829
1.271618
1.206732
1.12238
1.072417
1.020833
0.961137
0.957569
0.979306
1.03673
1.094154
1.148659
1.217438
1.305359
1.377059
1.36473
1.342993
1.29076
1.230416
1.17948
1.104861
1.047761
0.982225
0.957569
0.954649
0.98839
1.050681
1.113296
1.197648
1.269347
1.355322
1.418586
1.402689
1.377059
1.32515
1.257343
1.194404
1.124975
1.045814
0.979954
0.954324
0.946862
0.986443
1.051005
1.111674
1.18824
1.275512
1.383547
1.421182
1.425075
1.396849
1.34494
1.289787
1.213221
1.157743
1.092208
1.034459
1.024402
1.030241
1.070471
1.112647
1.155796
1.200892
1.26805
1.323203
1.301466
1.267076
1.20511
1.155472
1.120758
1.051978
0.990985
0.916041
0.897549
0.902091
0.946538
1.017913
1.088315
1.178831
1.261886
1.362135
1.425399
1.409826
1.373166
1.302115
1.209328
1.134384
1.075662
1.007531
0.946214
0.927397
0.926423
0.962435
1.026024
1.076635
1.17656
1.272916
1.380303
1.391334
1.371543
1.325474
1.263508
1.204461
1.11946
1.060089
0.98255
0.923179
0.907606
0.938752
1.006233
1.080528
1.144766
1.219709
1.307955
1.382899
1.366353
1.34202
1.294329
1.2395
1.182724
1.113296
1.051654
0.984172
0.955946
0.961462
1.001691
1.06236
1.124651
1.212247
1.275836
1.34494
1.39328
1.388738
1.364406
1.309901
1.244042
1.195701
1.15093
1.087017
1.025375
1.00818
1.007207
1.028295
1.066253
1.09967
1.162934
1.2395
1.334883
1.333261
1.312497
1.267076
1.205759
1.155472
1.084421
1.040948
1.004287
0.97671
0.993256
1.01402
1.055223
1.094803
1.14217
1.199919
1.272267
1.330341
1.296924
1.245988
1.182724
1.135033
1.104861
1.050681
0.998447
0.930316
0.907606
0.908904
0.949133
1.001042
1.054249
1.132113
1.206083
1.289138
1.343642
1.335532
1.308604
1.27097
1.211923
1.155796
1.102914
1.040948
0.978981
0.963733
0.961137
1.004936
1.063009
1.122055
1.205759
1.292058
1.377059
1.380952
1.35662
1.309253
1.25345
1.206732
1.139575
1.089937
1.02797
0.97087
0.947187
0.958866
1.009153
1.074688
1.141197
1.220358
1.306333
1.387765
1.379979
1.368948
1.332612
1.275836
1.213221
1.123029
1.04257
0.979306
0.962435
0.962435
0.996176
1.048734
1.099021
1.167476
1.235282
1.330665
1.397174
1.387116
1.359864
1.301142
1.231389
1.163907
1.101941
1.04549
0.981252
0.963733
0.960164
1.007207
1.063658
1.116216
1.190835
1.276485
1.357268
1.35662
1.329692
1.276161
1.224251
1.16488
1.094479
1.04257
0.98547
0.942969
0.946214
0.969248
1.027321
1.100643
1.175587
1.254099
1.337478
1.409178
1.387441
1.364082
1.306657
1.248259
1.185969
1.097399
1.018886
0.948809
0.920583
0.91961
0.958542
1.015966
1.070146
1.152552
1.23366
1.327745
1.382574
1.368624
1.345589
1.308279
1.251828
1.204461
1.15385
1.102914
1.050032
1.047436
1.044192
1.071769
1.115891
1.166503
1.230091
1.302764
1.378357
1.391983
1.37641
1.319634
1.258641
1.183373
1.079555
1.023428
0.971195
0.923179
0.921557
0.944591
0.995203
1.052627
1.112323
1.182075
1.277458
1.363757
1.361811
1.355971
1.303737
1.253775
1.19927
1.122704
1.051329
1.000394
0.974439
0.966977
0.994878
1.043543
1.081826
1.151579
1.228469
1.314443
1.364082
1.349807
1.32223
1.270645
1.214843
1.159365
1.114269
1.058791
1.001691
0.998771
1.00234
1.044841
1.094803
1.150605
1.228794
1.319959
1.38225
1.382899
1.3537
1.306657
1.255721
1.200892
1.128869
1.069498
1.006558
0.952053
0.949782
0.974764
1.030566
1.08507
1.145415
1.206083
1.283622
1.363757
1.368299
1.372192
1.326447
1.280703
1.220683
1.143792
1.056196
0.993581
0.951404
0.938427
0.96795
1.012073
1.063982
1.154499
1.241446
1.343967
1.417288
1.409502
1.379979
1.315741
1.243717
1.16488
1.087666
1.022455
0.960489
0.96276
0.984821
1.063009
1.152228
1.237229
1.331638
1.434483
1.488663
1.453949
1.400742
1.343967
1.285569
1.218087
1.127571
1.060738
0.99131
0.930641
0.921881
0.938103
0.989363
1.043543
1.109078
1.181102
1.269347
1.34786
1.33618
1.317039
1.258641
1.203163
1.147361
1.08507
1.017264
0.969897
0.946214
0.954973
1.001691
1.058791
1.115891
1.197324
1.277458
1.35662
1.403987
1.374788
1.345264
1.292058
1.228469
1.166178
1.118811
1.062036
0.999745
0.990661
0.98547
1.022779
1.074364
1.133086
1.210301
1.304062
1.377708
1.385818
1.378357
1.347536
1.303737
1.255397
1.181426
1.118487
1.046463
0.993905
0.995852
1.030566
1.109078
1.182724
1.248584
1.301142
1.359215
1.404311
1.3537
1.316714
1.25929
1.202839
1.138602
1.047112
0.961786
0.918312
0.914419
0.936156
0.988065
1.04841
1.110376
1.192457
1.271618
1.357593
1.397822
1.377708
1.335856
1.246962
1.154499
1.076311
1.027321
0.97671
0.92253
0.924801
0.939725
0.993905
1.056196
1.117189
1.198946
1.294329
1.367001
1.367001
1.34202
1.292058
1.23658
1.181102
1.103563
1.047761
0.974439
0.901442
0.884572
0.894304
0.956271
1.021806
1.091883
1.168125
1.255072
1.331314
1.317039
1.298546
1.253126
1.200892
1.150281
1.083448
1.007531
0.956271
0.936156
0.940374
0.981577
1.038028
1.086692
1.172018
1.248908
1.334558
1.383872
1.365379
1.336505
1.283622
1.226847
1.164232
1.113296
1.049707
0.985794
0.970221
0.982225
1.044841
1.118487
1.189213
1.270321
1.365704
1.423128
1.403338
1.375761
1.339749
1.280054
1.201866
1.103887
1.029917
0.961137
0.914419
0.921232
0.954
1.024402
1.088315
1.161636
1.22198
1.2966
1.367001
1.343318
1.321581
1.272267
1.209003
1.140224
1.067875
0.994229
0.945889
0.920908
0.914095
0.944267
0.993581
1.047761
1.120433
1.194079
1.284271
1.334234
1.327421
1.309577
1.260912
1.204461
1.143792
1.093181
1.032837
0.970546
0.96276
0.966977
1.010775
1.067227
1.137304
1.222954
1.330665
1.403338
1.392307
1.367001
1.315417
1.247611
1.187915
1.105185
1.032512
0.95692
0.910202
0.921557
0.954
1.027321
1.087017
1.146712
1.19343
1.267076
1.332936
1.332936
1.322554
1.276485
1.226522
1.165529
1.090586
1.007207
0.965355
0.952378
0.961137
0.992607
1.051978
1.113945
1.201866
1.27908
1.365379
1.394903
1.355971
1.307306
1.261561
1.210625
1.15969
1.124327
1.087017
1.04549
1.041921
1.033486
1.053925
1.075013
1.106158
1.175911
1.281676
1.359864
1.356295
1.339425
1.300493
1.24242
1.199919
1.134384
1.081826
1.01402
0.960813
0.949133
0.972168
1.021482
1.06236
1.115567
1.171694
1.248908
1.317363
1.315741
1.308604
1.269347
1.235607
1.194404
1.140873
1.07112
1.021157
0.997474
0.993581
1.022455
1.07112
1.110376
1.1824
1.249882
1.328394
1.363757
1.348509
1.321905
1.273241
1.219061
1.157743
1.106807
1.04549
0.978981
0.962111
0.962435
1.010127
1.074688
1.151903
1.242744
1.348184
1.429617
1.428968
1.408529
1.364082
1.304062
1.252801
1.180129
1.112971
1.050356
1.009802
1.014993
1.055547
1.104536
1.144766
1.209976
1.263183
1.320283
1.364082
1.322879
1.277458
1.211923
1.154174
1.103563
1.044841
0.978008
0.932587
0.902415
0.906308
0.945565
1.007531
1.060089
1.15093
1.247935
1.348184
1.388738
1.370895
1.32807
1.273565
1.214194
1.140548
1.08215
1.010451
0.937778
0.913122
0.91669
0.964382
1.021482
1.089288
1.165854
1.267725
1.340398
1.336505
1.31931
1.271943
1.223927
1.187266
1.128869
1.083448
1.03089
0.99942
1.00234
1.028619
1.073715
1.113296
1.172342
1.231713
1.301466
1.354673
1.329043
1.299844
1.251504
1.197972
1.135357
1.064956
1.000069
0.971844
0.978657
0.994229
1.040948
1.09967
1.141521
1.192782
1.25053
1.321905
1.358566
1.347211
1.317039
1.274538
1.234309
1.175262
1.132113
1.069173
1.012398
1.006233
1.021482
1.064631
1.105185
1.151254
1.206732
1.288165
1.343967
1.322554
1.300817
1.256046
1.191484
1.141846
1.075337
1.031215
0.981901
0.954649
0.95108
0.984172
1.031539
1.075986
1.145739
1.223927
1.317688
1.381601
1.363108
1.337478
1.290111
1.234633
1.178182
1.09967
1.011424
0.948485
0.924152
0.935832
0.981577
1.041596
1.098048
1.184995
1.280378
1.375112
1.407555
1.390685
1.348833
1.282974
1.216141
1.143792
1.092857
1.03965
0.983523
0.976061
0.985145
1.038352
1.089612
1.138277
1.211274
1.312172
1.385494
1.373814
1.349807
1.305035
1.258641
1.222629
1.167151
1.113296
1.051005
1.014344
1.010127
1.032188
1.066578
1.103238
1.169423
1.23366
1.314119
1.380628
1.363433
1.352402
1.312172
1.255397
1.191484
1.115567
1.031863
0.973466
0.958542
0.956271
0.998771
1.058467
1.119136
1.198621
1.291409
1.382899
1.41372
1.42475
1.432212
1.415342
1.370895
1.302115
1.223927
1.118162
0.997798
0.956271
0.938427
0.969248
1.025375
1.084746
1.167151
1.279729
1.367326
1.358891
1.345589
1.303413
1.259615
1.217438
1.156121
1.104861
1.041596
1.012073
1.016291
1.055223
1.105185
1.151903
1.218412
1.280054
1.354024
1.409502
1.385494
1.348833
1.291084
1.22782
1.170071
1.108429
1.042245
0.984496
0.962435
0.962435
1.003638
1.066253
1.127895
1.219709
1.31055
1.408204
1.427995
1.418586
1.376734
1.310875
1.245015
1.174938
1.117513
1.056196
0.995527
0.986767
0.989363
1.025375
1.084746
1.146712
1.2249
1.330341
1.411773
1.404311
1.389063
1.335207
1.268699
1.218087
1.151579
1.077284
0.984821
0.946862
0.949133
0.989687
1.050681
1.110052
1.180778
1.248259
1.322879
1.379979
1.368948
1.355646
1.339749
1.305359
1.259939
1.202839
1.129517
1.070795
1.052627
1.03089
1.035108
1.057818
1.079231
1.13114
1.193755
1.281027
1.308928
1.306333
1.263183
1.203488
1.147686
1.086044
1.036406
0.985145
0.930316
0.925774
0.945889
0.998123
1.069498
1.131788
1.213545
1.305684
1.37933
1.360837
1.34494
1.294329
1.244691
1.187915
1.122704
1.07112
0.99942
0.968924
0.961137
0.990985
1.03673
1.08507
1.152876
1.224576
1.310226
1.377383
1.361811
1.343318
1.302115
1.256046
1.209328
1.160663
1.104861
1.051329
1.038677
1.038677
1.087666
1.160014
1.237878
1.317688
1.381925
1.452327
1.462384
1.437079
1.367326
1.270645
1.165854
1.066902
1.001367
0.94524
0.8969
0.906308
0.932587
0.987741
1.054898
1.125949
1.207381
1.312497
1.389063
1.370895
1.363757
1.326447
1.272916
1.220034
1.166503
1.121407
1.052952
1.004287
0.998447
1.026024
1.066578
1.106158
1.158716
1.217438
1.28784
1.336505
1.313146
1.284271
1.245015
1.202515
1.146063
1.087017
1.021806
0.969573
0.97087
0.974439
1.024726
1.077933
1.140548
1.22198
1.311524
1.403338
1.427995
1.411773
1.367001
1.305684
1.239175
1.160663
1.101616
1.035757
0.974115
0.958218
0.969248
1.020184
1.08799
1.154499
1.236904
1.336505
1.430266
1.423128
1.412097
1.358566
1.298871
1.228145
1.141846
1.071444
1.021482
0.992932
0.998447
1.039325
1.095777
1.152876
1.235282
1.309901
1.379654
1.423453
1.40788
1.380628
1.313795
1.231065
1.151254
1.072093
0.993256
0.927397
0.921557
0.92837
0.980928
1.040623
1.108105
1.203163
1.311199
1.4108
1.440323
1.43643
1.401067
1.345913
1.287191
1.211599
1.137953
1.056845
0.990012
0.97671
0.981577
1.039325
1.109078
1.172991
1.238202
1.321257
1.386792
1.363433
1.341047
1.294978
1.250855
1.203812
1.143792
1.092532
1.04257
1.0111
1.011424
1.051329
1.099021
1.155148
1.229767
1.30244
1.379654
1.43059
1.411124
1.377383
1.318337
1.261237
1.197972
1.136979
1.066902
1.002665
0.997149
0.998123
1.043867
1.095452
1.154174
1.233336
1.332287
1.41891
1.448434
1.448109
1.419884
1.369272
1.306008
1.223603
1.157094
1.093181
1.03381
1.024402
1.044841
1.094803
1.148983
1.218087
1.297249
1.363108
1.412746
1.382574
1.372192
1.334234
1.286867
1.226198
1.15677
1.080853
1.028619
0.992607
0.991634
1.034135
1.087341
1.132762
1.206083
1.280378
1.359539
1.404635
1.381276
1.345589
1.283298
1.225225
1.155796
1.093505
1.021482
0.965031
0.956595
0.968599
1.021157
1.091234
1.15093
1.228145
1.317363
1.393605
1.414693
1.406258
1.370246
1.310875
1.250855
1.169098
1.121731
1.063009
1.010775
1.010127
1.024726
1.078906
1.142819
1.215492
1.287516
1.374139
1.444216
1.424101
1.403662
1.354349
1.298871
1.243393
1.181102
1.108105
1.054898
1.007207
1.00526
1.041921
1.095128
1.147686
1.235282
1.330016
1.43351
1.502614
1.488988
1.461087
1.406907
1.343967
1.276809
1.233011
1.187591
1.12238
1.094154
1.081826
1.121082
1.154174
1.191484
1.24242
1.314768
1.368299
1.372192
1.363433
1.343967
1.298871
1.257343
1.200892
1.156121
1.097723
1.046138
1.043219
1.057494
1.1107
1.177209
1.254748
1.337478
1.428968
1.49937
1.470171
1.447785
1.403662
1.354997
1.303413
1.24242
1.160663
1.097723
1.047436
1.037379
1.060089
1.10778
1.15677
1.238526
1.321581
1.416639
1.477308
1.468549
1.445838
1.39036
1.337478
1.267725
1.198297
1.117838
1.060089
1.045165
1.047436
1.086044
1.137304
1.200244
1.273565
1.361162
1.433185
1.452651
1.442594
1.415017
1.359215
1.312172
1.246313
1.203488
1.148983
1.090586
1.08215
1.099021
1.157419
1.226522
1.295951
1.363757
1.458491
1.537328
1.522729
1.502289
1.449407
1.395227
1.342345
1.282649
1.207705
1.157743
1.126273
1.118487
1.147686
1.190835
1.221656
1.281676
1.36473
1.469522
1.546412
1.531488
1.488014
1.414044
1.345913
1.288813
1.239175
1.184995
1.134384
1.129517
1.131464
1.159041
1.194404
1.247935
1.315417
1.411449
1.479255
1.490285
1.480553
1.448758
1.392307
1.342345
1.265454
1.196026
1.11654
1.058791
1.04841
1.063982
1.119784
1.181426
1.254424
1.33618
1.439674
1.51624
1.502289
1.482499
1.437403
1.388089
1.341696
1.286867
1.218412
1.170396
1.134384
1.133086
1.161312
1.206408
1.23366
1.301466
1.367001
1.441621
1.487366
1.470171
1.444865
1.402689
1.353051
1.295302
1.239175
1.175262
1.111349
1.095128
1.09675
1.150281
1.22198
1.287191
1.359539
1.445189
1.504885
1.491583
1.455896
1.408529
1.350455
1.303737
1.239175
1.19635
1.141197
1.088639
1.082799
1.087017
1.11946
1.168449
1.232038
1.285569
1.368299
1.429617
1.415342
1.397498
1.356944
1.312172
1.266428
1.200892
1.118811
1.047761
0.968924
0.924801
0.941023
0.987741
1.034459
1.120109
1.210301
1.304062
1.360837
1.340722
1.297573
1.237878
1.183373
1.120433
1.064631
0.998447
0.931614
0.911824
0.909553
0.953351
1.007856
1.061711
1.134059
1.222629
1.291409
1.295951
1.275512
1.238526
1.175262
1.11946
1.043867
0.981577
0.911824
0.865106
0.854724
0.870621
0.914744
0.966653
1.03673
1.10259
1.195053
1.258317
1.233984
1.202515
1.149308
1.089612
1.031863
0.962111
0.881976
0.823254
0.781078
0.767452
0.798922
0.845315
0.869972
0.924801
0.978657
1.063658
1.116216
1.097074
1.060413
1.011749
0.949133
0.861212
0.786269
0.702565
0.635408
0.619835
0.627622
0.671744
0.732738
0.788215
0.858293
0.938103
0.99942
0.9965
0.989039
0.956595
0.895278
0.841747
0.770372
0.713921
0.650007
0.596801
0.575713
0.587392
0.632813
0.684397
0.746364
0.818712
0.911499
0.979954
0.959191
0.930965
0.874514
0.816765
0.76583
0.699646
0.627622
0.569873
0.535159
0.524452
0.548136
0.587717
0.614644
0.677584
0.749608
0.83688
0.887167
0.877758
0.845315
0.796975
0.741497
0.670447
0.60556
0.533212
0.464433
0.452429
0.449509
0.492334
0.545541
0.604587
0.685046
0.772643
0.846937
0.841422
0.823578
0.785295
0.712298
0.646114
0.575064
0.522506
0.469299
0.43718
0.42907
0.460539
0.524128
0.587392
0.658118
0.740199
0.838502
0.906308
0.881976
0.864132
0.824552
0.769398
0.711974
0.640599
0.558193
0.490063
0.453078
0.442371
0.478708
0.53451
0.591285
0.672393
0.750257
0.841098
0.875487
0.863808
0.829418
0.777185
0.718138
0.647412
0.585446
0.527048
0.473517
0.486494
0.514071
0.576362
0.646114
0.726573
0.826174
0.94524
1.052627
1.094479
1.126273
1.135682
1.140873
1.153525
1.158067
1.184995
1.196999
1.226847
1.26221
1.322554
1.39912
1.475362
1.554199
1.621356
1.710899
1.773514
1.758591
1.737178
1.694678
1.659314
1.617787
1.5675
1.506183
1.464331
1.42183
1.397498
1.420208
1.44746
1.484121
1.565229
1.658666
1.763133
1.820882
1.820882
1.799469
1.751778
1.685918
1.614543
1.560038
1.491259
1.424101
1.415991
1.423453
1.467251
1.526946
1.600268
1.674238
1.760213
1.834832
1.83613
1.824775
1.777408
1.705059
1.631413
1.543168
1.462384
1.37349
1.309253
1.285893
1.309577
1.356295
1.407231
1.481526
1.558092
1.647635
1.718685
1.692406
1.660288
1.601566
1.545763
1.485743
1.41891
1.35078
1.290111
1.258317
1.248259
1.283298
1.324501
1.358566
1.424426
1.495152
1.577558
1.603512
1.583397
1.537653
1.48769
1.429292
1.361486
1.29076
1.222629
1.152552
1.138926
1.134059
1.169747
1.217438
1.271618
1.344616
1.433185
1.505534
1.502938
1.488339
1.445189
1.382899
1.334234
1.25637
1.185969
1.118811
1.084421
1.075337
1.108105
1.169098
1.237229
1.321581
1.392956
1.453949
1.490934
1.437403
1.388738
1.313795
1.223278
1.14217
1.08507
1.035108
1.005585
1.005585
1.014993
1.058791
1.105509
1.152876
1.217763
1.294653
1.369921
1.391983
1.357593
1.305035
1.244366
1.19343
1.12822
1.067551
1.008504
0.950107
0.950756
0.961786
1.003314
1.057169
1.113296
1.177533
1.267076
1.336829
1.326772
1.314119
1.268374
1.208354
1.155796
1.091559
1.039974
0.987092
0.949458
0.944591
0.968924
1.018562
1.071769
1.131464
1.196999
1.267401
1.315741
1.280378
1.241446
1.177858
1.118811
1.060413
0.998447
0.929992
0.881652
0.865106
0.870621
0.917988
0.965679
1.000718
1.06236
1.134384
1.205759
1.233336
1.226198
1.20219
1.161961
1.106483
1.033486
0.963084
0.910526
0.85148
0.844666
0.850506
0.894953
0.930641
0.978008
1.051329
1.166827
1.263183
1.263508
1.262534
1.220034
1.169098
1.123029
1.058791
1.000394
0.93129
0.869648
0.832338
0.827147
0.85959
0.909553
0.980928
1.05944
1.138602
1.196026
1.167151
1.140873
1.08215
1.024077
0.957569
0.905335
0.836556
0.78854
0.782051
0.786269
0.834933
0.892682
0.942969
1.018886
1.09967
1.180778
1.212572
1.198621
1.157743
1.109727
1.053276
0.978657
0.914744
0.853102
0.78854
0.774265
0.781727
0.827796
0.885869
0.942969
1.008504
1.088963
1.169423
1.178831
1.183698
1.152876
1.106158
1.053276
0.982874
0.915393
0.844018
0.792757
0.769074
0.785944
0.841422
0.903713
0.986119
1.064631
1.14801
1.202515
1.162609
1.124975
1.063009
1.008829
0.948809
0.881652
0.812223
0.762261
0.748635
0.749932
0.801193
0.858617
0.917988
0.996176
1.08799
1.178182
1.204786
1.192782
1.14801
1.089288
1.030566
0.955946
0.88814
0.823254
0.765181
0.761288
0.77978
0.83396
0.881327
0.93129
0.990012
1.081826
1.159041
1.14801
1.134384
1.085395
1.022779
0.971844
0.914095
0.863159
0.804112
0.778482
0.776536
0.816441
0.877758
0.942645
1.022779
1.097723
1.174613
1.215167
1.180129
1.143144
1.081502
1.020508
0.957893
0.898847
0.833311
0.771345
0.744093
0.738577
0.77394
0.824552
0.877434
0.94816
1.028295
1.120109
1.156445
1.158067
1.145739
1.10778
1.06236
0.989363
0.925774
0.849208
0.78562
0.77102
0.762261
0.797299
0.840124
0.893007
0.955946
1.043219
1.123353
1.125624
1.123678
1.08507
1.028295
0.973466
0.921232
0.871594
0.821956
0.785295
0.783349
0.81417
0.864781
0.908904
0.976061
1.023428
1.09091
1.132762
1.092857
1.053276
1.000394
0.947187
0.903389
0.855373
0.790811
0.735333
0.723653
0.722356
0.754474
0.793406
0.837205
0.893331
0.95108
1.021157
1.057818
1.060413
1.040623
1.014669
0.978008
0.891385
0.808006
0.718463
0.645141
0.616915
0.603938
0.622755
0.646114
0.68018
0.722031
0.792757
0.856346
0.843044
0.82812
0.778482
0.717814
0.666229
0.609129
0.559816
0.512124
0.477734
0.474166
0.505311
0.563384
0.608156
0.679855
0.74831
0.83688
0.890411
0.862835
0.82812
0.762261
0.69997
0.627946
0.560464
0.482925
0.415443
0.389813
0.382351
0.420634
0.461837
0.516342
0.587717
0.666229
0.755772
0.790486
0.791135
0.760314
0.7256
0.695752
0.638652
0.606534
0.552354
0.508231
0.485845
0.456971
0.449833
0.455349
0.497525
0.553976
0.635084
0.706134
0.689588
0.672393
0.626648
0.575713
0.528995
0.484547
0.4401
0.395004
0.364183
0.366779
0.409604
0.473517
0.526075
0.60848
0.681153
0.775887
0.820659
0.795353
0.761612
0.715218
0.669798
0.6114
0.564033
0.499471
0.443993
0.432638
0.43426
0.466379
0.501093
0.548136
0.62016
0.712623
0.80833
0.843693
0.847911
0.811574
0.754799
0.705161
0.630866
0.578633
0.509529
0.445291
0.430692
0.44886
0.500445
0.562735
0.635084
0.712623
0.809952
0.889762
0.882301
0.871919
0.83104
0.771994
0.714894
0.652279
0.59745
0.553002
0.523804
0.526399
0.563384
0.627946
0.682126
0.766803
0.838502
0.930316
0.972168
0.948809
0.914419
0.863159
0.806708
0.753177
0.707756
0.63411
0.581877
0.578957
0.606209
0.664282
0.73144
0.791784
0.872892
0.965679
1.051329
1.077284
1.07112
1.04549
0.996825
0.94232
0.843693
0.764532
0.679855
0.619186
0.614644
0.64287
0.709378
0.781078
0.857968
0.939725
1.026024
1.085719
1.05652
1.037703
0.989363
0.940049
0.900144
0.843369
0.788864
0.752528
0.718463
0.715867
0.746039
0.810926
0.873865
0.96795
1.043543
1.130815
1.169747
1.147037
1.129193
1.096101
1.05652
1.015317
0.97963
0.937778
0.905984
0.904362
0.916041
0.964057
1.0111
1.043219
1.091559
1.165854
1.238202
1.252801
1.235931
1.192133
1.143468
1.111349
1.037054
0.995852
0.938752
0.904686
0.907931
0.940698
0.998771
1.071444
1.14801
1.226847
1.320608
1.403662
1.403338
1.393929
1.358891
1.311524
1.27097
1.218412
1.170071
1.130491
1.099994
1.108429
1.153201
1.228145
1.288489
1.38517
1.463033
1.540572
1.561985
1.543492
1.521106
1.476984
1.428968
1.39328
1.363433
1.322879
1.28492
1.283947
1.297897
1.348184
1.402364
1.464655
1.551928
1.662883
1.761186
1.78195
1.767675
1.743018
1.70441
1.66775
1.594753
1.560038
1.512671
1.48769
1.502614
1.539924
1.609352
1.682674
1.772866
1.870844
1.998021
2.105733
2.12455
2.131363
2.110275
2.071019
2.039873
1.985368
1.914318
1.845863
1.787465
1.755671
1.775785
1.822504
1.849107
1.909127
1.962658
2.031762
2.050579
2.011647
1.957143
1.89031
1.811149
1.732636
1.659314
1.576909
1.500343
1.468873
1.44746
1.475362
1.510725
1.546088
1.609028
1.673265
1.731663
1.738151
1.718361
1.676834
1.635955
1.595077
1.515591
1.448434
1.362784
1.299844
1.285245
1.30244
1.34786
1.388738
1.441945
1.503587
1.573664
1.644715
1.615192
1.586317
1.537653
1.469522
1.416639
1.360513
1.301142
1.252477
1.221332
1.2249
1.260912
1.306008
1.34786
1.431239
1.49937
1.576909
1.597997
1.582749
1.550954
1.503263
1.444865
1.383223
1.335207
1.278432
1.217114
1.197324
1.183373
1.20803
1.248908
1.291084
1.352402
1.429617
1.500018
1.517213
1.511374
1.476984
1.433834
1.391334
1.32223
1.272267
1.199595
1.155472
1.147361
1.163258
1.207057
1.261237
1.320608
1.384196
1.458491
1.523378
1.505858
1.489961
1.446812
1.387765
1.347211
1.296275
1.250206
1.219385
1.201217
1.197972
1.238202
1.2966
1.361811
1.452003
1.515916
1.59605
1.608379
1.558741
1.495476
1.435132
1.368299
1.306657
1.252153
1.17656
1.101616
1.084421
1.090261
1.130815
1.176236
1.219061
1.2966
1.385818
1.477308
1.497423
1.495152
1.45622
1.398471
1.34494
1.274863
1.223278
1.161636
1.114594
1.098372
1.106483
1.142495
1.204137
1.282
1.355646
1.441296
1.525
1.516889
1.50748
1.465304
1.393605
1.332612
1.252153
1.174613
1.122704
1.086692
1.080528
1.111349
1.161312
1.210625
1.291733
1.378357
1.481201
1.506183
1.484121
1.432537
1.374139
1.317039
1.256695
1.206732
1.14509
1.080528
1.077284
1.09091
1.145415
1.201866
1.25637
1.325474
1.409826
1.488339
1.500992
1.490934
1.454274
1.405609
1.361162
1.297897
1.255072
1.195053
1.149632
1.136655
1.147686
1.184671
1.22198
1.287191
1.359215
1.433834
1.500343
1.482824
1.460113
1.400418
1.324825
1.264481
1.200568
1.121731
1.06528
1.030241
1.017913
1.064631
1.114269
1.160663
1.245015
1.338127
1.452327
1.483472
1.457842
1.424101
1.372192
1.326123
1.271943
1.224251
1.165854
1.100643
1.084746
1.070146
1.108429
1.157743
1.215816
1.292707
1.38517
1.474713
1.491259
1.48769
1.447785
1.393605
1.337803
1.261886
1.205759
1.147686
1.11654
1.119784
1.144441
1.190835
1.23658
1.278432
1.323203
1.389063
1.461411
1.443892
1.42183
1.367326
1.301791
1.240473
1.178507
1.112323
1.056196
1.026024
1.021157
1.069822
1.126922
1.187266
1.286542
1.381276
1.481526
1.505534
1.487041
1.455896
1.420208
1.376734
1.318012
1.25637
1.185969
1.121082
1.114269
1.116865
1.157743
1.176884
1.21387
1.274863
1.355646
1.430266
1.431239
1.417937
1.367975
1.319959
1.289462
1.251504
1.220358
1.184671
1.181751
1.206732
1.235931
1.276161
1.311848
1.340722
1.356944
1.389712
1.426372
1.38517
1.358566
1.30763
1.256046
1.203812
1.154823
1.096425
1.052303
1.031215
1.035432
1.086368
1.151579
1.212572
1.288165
1.371219
1.454922
1.473415
1.45038
1.402689
1.344291
1.297573
1.247286
1.191159
1.138277
1.077608
1.077608
1.076311
1.121407
1.158067
1.21095
1.272592
1.357268
1.42767
1.43059
1.432861
1.403338
1.369921
1.33618
1.280378
1.219709
1.154499
1.102265
1.08507
1.097074
1.135357
1.181751
1.245015
1.306982
1.378681
1.445838
1.432537
1.417288
1.365379
1.307955
1.248908
1.193755
1.119784
1.054898
1.0111
0.985794
1.014344
1.072093
1.140873
1.237878
1.328394
1.422155
1.448758
1.423777
1.383223
1.330016
1.277458
1.21387
1.166178
1.123029
1.073066
1.077284
1.09383
1.141846
1.17072
1.207057
1.260912
1.333909
1.376734
1.357268
1.338451
1.301791
1.25345
1.210301
1.153201
1.098048
1.050681
1.020184
1.016291
1.047436
1.117838
1.187266
1.260263
1.32515
1.403013
1.454598
1.425399
1.396525
1.331638
1.264157
1.198946
1.138277
1.060089
1.009802
0.981901
0.970221
1.003638
1.055871
1.105185
1.183698
1.282974
1.377708
1.40788
1.389387
1.357593
1.312821
1.26805
1.202515
1.149632
1.089937
1.018886
1.006558
1.012073
1.058142
1.101292
1.157094
1.218087
1.305359
1.379979
1.378032
1.363757
1.31931
1.270645
1.220683
1.152552
1.090261
1.036406
1.009153
1.015642
1.048085
1.10259
1.162609
1.247611
1.320608
1.404635
1.484446
1.475362
1.454922
1.385494
1.309253
1.222954
1.135357
1.038677
0.979306
0.945565
0.936481
0.972817
1.028295
1.092208
1.186617
1.290111
1.395551
1.437079
1.426372
1.394903
1.337803
1.292707
1.212896
1.14217
1.057169
0.957569
0.927072
0.920259
0.969897
1.01694
1.067551
1.139575
1.235282
1.31055
1.314443
1.301791
1.257019
1.20803
1.157743
1.098048
1.039001
0.980928
0.947187
0.949133
0.976061
1.024077
1.077284
1.150605
1.218736
1.289787
1.348509
1.326772
1.296275
1.237229
1.180453
1.123353
1.070471
1.011749
0.968924
0.952053
0.962435
1.004611
1.054249
1.09675
1.164232
1.242095
1.31639
1.323203
1.279729
1.231065
1.176884
1.134384
1.073066
1.03089
0.987416
0.929019
0.926099
0.945889
0.9965
1.033161
1.083124
1.144441
1.244366
1.318661
1.308928
1.288813
1.24534
1.188564
1.133411
1.064631
0.993256
0.928694
0.905984
0.916041
0.954649
0.996825
1.046138
1.129193
1.200244
1.278107
1.34202
1.318012
1.297897
1.241122
1.1824
1.136655
1.086368
1.020184
0.98255
0.980279
0.982225
1.008829
1.051654
1.092208
1.172667
1.257992
1.343642
1.342345
1.301791
1.246313
1.1824
1.132437
1.068524
1.020833
0.963733
0.910202
0.90566
0.923179
0.968924
1.020833
1.077284
1.143144
1.235607
1.304386
1.300493
1.287516
1.249882
1.195701
1.148659
1.081826
1.026024
0.965031
0.940698
0.942969
0.974115
1.034459
1.085395
1.155148
1.218736
1.293031
1.343642
1.318661
1.290436
1.234958
1.177858
1.128544
1.079879
1.015642
0.968924
0.951404
0.961137
1.000069
1.051978
1.107132
1.191484
1.284271
1.384196
1.395227
1.370895
1.32807
1.272267
1.220034
1.139899
1.08215
1.010775
0.945889
0.936156
0.949133
0.992283
1.035108
1.078582
1.125949
1.191484
1.246313
1.223278
1.184671
1.123029
1.05944
1.00818
0.943618
0.894304
0.843369
0.834285
0.853751
0.896575
0.95984
1.020184
1.096425
1.143468
1.204461
1.25345
1.2395
1.209328
1.163258
1.1107
1.060089
1.010127
0.943618
0.891385
0.878083
0.890736
0.936481
1.000718
1.056845
1.141197
1.225225
1.320283
1.332287
1.31639
1.285569
1.249882
1.216465
1.160338
1.11946
1.069173
1.013695
1.012722
1.028619
1.076959
1.118487
1.17072
1.233336
1.320932
1.3962
1.393605
1.382574
1.3391
1.288489
1.252801
1.202515
1.152876
1.074364
1.045165
1.048734
1.095128
1.164232
1.219061
1.297249
1.366028
1.451678
1.500343
1.475362
1.434159
1.375761
1.306657
1.239824
1.186293
1.122055
1.066253
1.05944
1.077608
1.120433
1.189213
1.249557
1.334558
1.420533
1.508778
1.520133
1.511374
1.474064
1.430914
1.393605
1.329043
1.282325
1.222954
1.174289
1.162285
1.179155
1.22782
1.287191
1.337803
1.397174
1.480228
1.552901
1.537004
1.50748
1.452976
1.400093
1.360188
1.303737
1.259615
1.211923
1.211923
1.234633
1.281351
1.343642
1.394254
1.467575
1.520458
1.577233
1.607081
1.581126
1.546412
1.492557
1.428643
1.38225
1.339425
1.292382
1.243069
1.235607
1.246962
1.306657
1.384521
1.457193
1.548359
1.624276
1.698571
1.682674
1.647635
1.585668
1.510725
1.445189
1.367975
1.315417
1.257019
1.223278
1.228469
1.257992
1.305035
1.358891
1.412422
1.476984
1.561985
1.635631
1.618436
1.603188
1.561012
1.504885
1.457842
1.398147
1.348509
1.306982
1.307955
1.334234
1.380628
1.429941
1.450056
1.488339
1.526946
1.602539
1.648608
1.633035
1.605783
1.547385
1.473415
1.417937
1.371868
1.318661
1.264157
1.248584
1.25345
1.301142
1.367975
1.419884
1.498072
1.575935
1.650555
1.644066
1.619409
1.566527
1.517538
1.470171
1.396849
1.340722
1.281676
1.238202
1.235931
1.260912
1.309253
1.356944
1.403987
1.464655
1.531813
1.60189
1.5821
1.560038
1.516564
1.463358
1.415342
1.350455
1.298222
1.251504
1.237553
1.232687
1.27908
1.337154
1.40788
1.504885
1.579829
1.670994
1.718685
1.702139
1.640497
1.554523
1.445514
1.348509
1.25929
1.187915
1.120109
1.111349
1.1107
1.151903
1.214519
1.277134
1.373166
1.479904
1.566851
1.574638
1.560038
1.518187
1.474064
1.438376
1.372517
1.32515
1.266103
1.213221
1.201541
1.216141
1.255072
1.308604
1.357593
1.415342
1.47601
1.517538
1.485743
1.457193
1.405284
1.345264
1.298222
1.242744
1.194404
1.156121
1.141846
1.148659
1.191484
1.246313
1.296275
1.369272
1.431888
1.506507
1.543168
1.515267
1.472766
1.416639
1.346887
1.289787
1.232687
1.182075
1.124975
1.124651
1.13114
1.186617
1.240797
1.300168
1.382899
1.47601
1.544466
1.539599
1.514942
1.460113
1.40204
1.343967
1.26805
1.209652
1.156445
1.121407
1.130815
1.160663
1.233011
1.315092
1.39912
1.480553
1.561985
1.625249
1.587939
1.548034
1.475037
1.391334
1.311848
1.233984
1.157094
1.108105
1.09383
1.100643
1.138602
1.179155
1.209003
1.269996
1.320283
1.379005
1.433185
1.416315
1.381276
1.32223
1.254748
1.196026
1.149632
1.105185
1.059765
1.078906
1.100967
1.158067
1.217114
1.271294
1.352078
1.44746
1.518511
1.503263
1.468873
1.403013
1.330989
1.264805
1.184022
1.121731
1.049707
0.992283
0.985794
1.013046
1.0682
1.132437
1.199595
1.261561
1.341047
1.414693
1.395876
1.379005
1.338776
1.29952
1.261561
1.211923
1.160987
1.134059
1.130815
1.146063
1.203488
1.259939
1.271618
1.302115
1.330989
1.37057
1.397822
1.360837
1.323528
1.26513
1.203163
1.155472
1.1107
1.06236
1.010775
1.019535
1.036081
1.106158
1.171369
1.226198
1.31347
1.410475
1.479255
1.468873
1.427995
1.368299
1.314443
1.280054
1.228794
1.1824
1.120758
1.063333
1.049058
1.057494
1.094803
1.135682
1.178831
1.225225
1.285569
1.352078
1.326447
1.312172
1.265454
1.221007
1.170396
1.112971
1.052952
1.008504
1.004936
1.023753
1.078582
1.13925
1.194728
1.275512
1.352402
1.423453
1.460762
1.419559
1.371868
1.295626
1.219061
1.141521
1.072417
1.005909
0.931939
0.915393
0.915717
0.963733
1.026024
1.083124
1.164556
1.258641
1.33618
1.340398
1.330341
1.295302
1.253775
1.210625
1.159041
1.13114
1.085395
1.037379
1.034459
1.04549
1.075337
1.101941
1.129517
1.161312
1.209003
1.242744
1.197648
1.160663
1.09091
1.026024
0.968599
0.889762
0.812548
0.760314
0.747986
0.760639
0.819685
0.903064
0.979954
1.08215
1.169098
1.243393
1.286542
1.236255
1.152228
1.066253
1.012073
0.968599
0.931939
0.873865
0.808655
0.783349
0.753177
0.763234
0.786918
0.829094
0.897224
0.974439
1.028295
1.00234
0.95984
0.894953
0.824552
0.759665
0.683424
0.617564
0.547163
0.489089
0.478708
0.490063
0.52867
0.56306
0.612373
0.660389
0.721382
0.773616
0.732413
0.687317
0.607831
0.523155
0.431989
0.331091
0.224678
0.144219
0.091985
0.063435
0.073493
0.105611
0.13773
0.193208
0.252903
0.310328
0.327847
0.282102
0.221109
0.143894
0.059866
-0.018646
-0.07607
-0.135441
-0.188324
-0.184106
-0.180213
-0.135766
-0.101052
-0.063742
-0.015726
0.060515
0.127348
0.107882
0.070897
0.010877
-0.061471
-0.137064
-0.224984
-0.293115
-0.373574
-0.441705
-0.460522
-0.43327
-0.387525
-0.342429
-0.286951
-0.243477
-0.16172
-0.105594
-0.134144
-0.16172
-0.226931
-0.297982
-0.370654
-0.434243
-0.479663
-0.489072
-0.500751
-0.508862
-0.449491
-0.353459
-0.276245
-0.180213
-0.080612
0.014446
0.058244
0.037481
0.00666
-0.041681
-0.098456
-0.161396
-0.205843
-0.268458
-0.33594
-0.342753
-0.3301
-0.265214
-0.201301
-0.122789
-0.03941
0.064733
0.153627
0.166604
0.163036
0.140325
0.107882
0.07479
0.028721
-0.007615
-0.042005
-0.058551
-0.03357
0.018664
0.103016
0.173418
0.265232
0.340175
0.431016
0.509529
0.505311
0.4972
0.443993
0.402142
0.367752
0.336282
0.296377
0.279182
0.279507
0.295728
0.34634
0.412848
0.480654
0.566304
0.641897
0.744093
0.809952
0.814494
0.797624
0.765181
0.732738
0.677909
0.640275
0.598098
0.567277
0.589339
0.613671
0.680504
0.749932
0.830716
0.928694
1.044841
1.13925
1.151579
1.146388
1.125624
1.115242
1.108105
1.070795
1.036406
0.991634
0.960813
0.954649
0.98547
1.035757
1.083124
1.156121
1.222305
1.314443
1.398796
1.418262
1.435781
1.423777
1.414044
1.40788
1.392632
1.365055
1.360188
1.375761
1.411449
1.48185
1.572367
1.651204
1.760213
1.867275
1.972716
2.0243
2.02722
2.018136
1.994128
1.976284
1.943517
1.928917
1.904585
1.871168
1.890634
1.935406
2.038575
2.140447
2.257567
2.391233
2.557018
2.682249
2.729616
2.761735
2.772117
2.778605
2.791258
2.789636
2.789636
2.761086
2.70431
2.674138
2.679329
2.707879
2.726696
2.752975
2.752326
2.752326
2.766601
2.764979
2.77601
2.752975
2.704635
2.635206
2.570968
2.497971
2.448009
2.414592
2.41589
2.45028
2.495376
2.531712
2.588163
2.641046
2.699444
2.703986
2.663107
2.591408
2.496349
2.414592
2.319534
2.248483
2.163482
2.077183
2.032411
2.009701
2.018785
2.042469
2.074912
2.124874
2.193005
2.234208
2.196249
2.15018
2.089511
2.025598
1.971418
1.895501
1.828668
1.757293
1.714143
1.701491
1.717388
1.760213
1.7959
1.844565
1.88447
1.940597
1.988288
1.965578
1.938326
1.872791
1.807904
1.731338
1.649906
1.569447
1.51332
1.479579
1.44746
1.427021
1.443243
1.471793
1.526297
1.602863
1.677158
1.683322
1.660937
1.628493
1.57918
1.534733
1.464331
1.418586
1.355646
1.274214
1.237229
1.216141
1.22198
1.26221
1.31639
1.384196
1.47893
1.541546
1.518187
1.481526
1.433834
1.378681
1.338776
1.282974
1.234958
1.177858
1.143144
1.137953
1.162934
1.211274
1.240149
1.295626
1.336829
1.40204
1.443243
1.415991
1.378357
1.32807
1.281027
1.237553
1.197324
1.138277
1.086368
1.057169
1.046138
1.071444
1.110052
1.145739
1.206732
1.266103
1.337478
1.354024
1.335532
1.292058
1.225549
1.158067
1.082475
1.029917
0.972492
0.926748
0.925774
0.949458
1.000069
1.060089
1.117189
1.18824
1.280703
1.344291
1.321581
1.2966
1.246962
1.189537
1.143792
1.069173
1.004936
0.935507
0.913122
0.915393
0.95108
0.998447
1.027321
1.05652
1.083448
1.135357
1.188888
1.17364
1.148659
1.109078
1.063982
1.023753
0.971519
0.900793
0.854075
0.84272
0.846937
0.890736
0.945565
0.990661
1.053925
1.122055
1.19927
1.197648
1.15677
1.110052
1.036081
0.964382
0.886194
0.836231
0.77978
0.734035
0.735657
0.762585
0.816765
0.88814
0.955298
1.037054
1.13633
1.209328
1.189213
1.168125
1.125624
1.084097
1.052303
1.000394
0.967626
0.911175
0.880354
0.875163
0.8969
0.933561
0.95984
1.007207
1.052303
1.112647
1.155148
1.13114
1.098696
1.051005
0.995527
0.943618
0.885869
0.830391
0.79438
0.804112
0.819361
0.868999
0.936156
0.993256
1.070146
1.145739
1.240473
1.249882
1.216465
1.161961
1.119784
1.079231
1.031215
0.996825
0.944916
0.880678
0.846289
0.832338
0.862186
0.922206
0.980603
1.052627
1.132437
1.206732
1.184995
1.172018
1.135357
1.089937
1.061387
1.002016
0.954649
0.891385
0.863483
0.855373
0.869323
0.919286
0.994554
1.082475
1.162285
1.248908
1.31347
1.300817
1.278107
1.225549
1.171045
1.111674
1.038028
0.956595
0.89982
0.89982
0.909553
0.932912
0.964706
0.997474
1.061711
1.125949
1.20511
1.214843
1.201541
1.165529
1.112647
1.064956
1.01694
0.986767
0.94524
0.905011
0.904362
0.922206
0.969573
1.028295
1.086044
1.152552
1.232038
1.2966
1.269672
1.245988
1.201217
1.158392
1.108754
1.043219
0.992283
0.937778
0.907931
0.905984
0.945565
0.998447
1.052952
1.12822
1.205759
1.299195
1.364082
1.3537
1.320932
1.268699
1.214843
1.156445
1.100967
1.049058
0.997474
0.989687
0.981252
1.002665
1.040948
1.076959
1.128869
1.182075
1.249233
1.273565
1.271618
1.23658
1.189862
1.144766
1.081826
1.043543
0.990985
0.930316
0.900793
0.912473
0.970546
1.04549
1.112323
1.191808
1.281027
1.364406
1.345264
1.330016
1.274214
1.202839
1.134384
1.057818
0.991634
0.94232
0.918637
0.907606
0.932912
0.964057
0.995527
1.056845
1.1253
1.209003
1.260263
1.240149
1.210625
1.162285
1.112323
1.071444
1.020184
0.969573
0.921557
0.915068
0.917015
0.964706
1.023753
1.075013
1.141197
1.212896
1.280378
1.288489
1.27097
1.223603
1.16488
1.102914
1.031215
0.986443
0.938427
0.902415
0.908255
0.932263
0.98547
1.049058
1.11362
1.186942
1.269347
1.332612
1.305035
1.278432
1.230416
1.183698
1.133411
1.071769
1.008504
0.94524
0.902415
0.889114
0.926748
0.986119
1.03673
1.114594
1.200568
1.289787
1.350455
1.334558
1.294978
1.231389
1.175911
1.11654
1.063333
1.005585
0.940698
0.919286
0.904362
0.943618
0.98839
1.043543
1.104536
1.17656
1.245015
1.246637
1.221332
1.176236
1.119136
1.063333
0.997474
0.949782
0.90566
0.864457
0.876461
0.901442
0.960813
1.026024
1.092208
1.160987
1.238851
1.303737
1.278107
1.264481
1.215492
1.17364
1.115567
1.047112
0.970221
0.921557
0.885545
0.881003
0.913122
0.954324
0.99942
1.067227
1.138602
1.222305
1.268699
1.249233
1.225874
1.184671
1.130166
1.077608
1.017913
0.956595
0.904686
0.903713
0.922206
0.978657
1.032837
1.087017
1.158716
1.25637
1.335856
1.354024
1.335856
1.292382
1.219385
1.13925
1.036081
0.978981
0.929668
0.892682
0.918312
0.952378
1.00234
1.048085
1.101616
1.167151
1.244042
1.305359
1.272592
1.240149
1.177533
1.129842
1.072093
1.014993
0.950107
0.917015
0.882301
0.872243
0.901766
0.939725
0.978008
1.057169
1.149957
1.243069
1.307306
1.303413
1.291084
1.239824
1.173316
1.097074
1.029268
0.95984
0.895927
0.874839
0.86251
0.890087
0.931614
0.97671
1.038352
1.119784
1.187915
1.194404
1.180778
1.14217
1.088963
1.040948
0.978981
0.927721
0.876461
0.829743
0.841098
0.862186
0.917339
0.979306
1.03965
1.111998
1.194728
1.261237
1.233984
1.209976
1.156121
1.109727
1.051654
0.984496
0.910526
0.859915
0.828769
0.821307
0.852453
0.892033
0.930641
0.992932
1.058791
1.127571
1.168125
1.137953
1.098372
1.039974
0.974764
0.905011
0.850182
0.783673
0.7256
0.717489
0.721058
0.762585
0.794704
0.828769
0.873865
0.937129
0.999745
1.001042
0.963084
0.903713
0.83396
0.770696
0.702241
0.656172
0.603614
0.563384
0.569224
0.595827
0.63995
0.692832
0.758043
0.816441
0.876136
0.909553
0.863483
0.827796
0.761288
0.704188
0.652603
0.600694
0.540025
0.506933
0.481952
0.488765
0.521533
0.572468
0.618538
0.690561
0.761936
0.840449
0.887167
0.871919
0.852128
0.807032
0.769074
0.71684
0.669798
0.607183
0.547163
0.529968
0.526723
0.56306
0.605236
0.653252
0.716516
0.80249
0.86835
0.872892
0.853102
0.821956
0.767127
0.723329
0.658443
0.608156
0.558842
0.516666
0.523155
0.550731
0.613671
0.689913
0.771994
0.855048
0.953351
1.025699
1.006558
0.993581
0.956595
0.908579
0.852777
0.794055
0.726898
0.679206
0.64287
0.628919
0.65455
0.695103
0.735009
0.797948
0.867377
0.942969
0.992283
0.980928
0.954973
0.905984
0.86543
0.81125
0.753826
0.682775
0.634435
0.640923
0.667527
0.735982
0.818712
0.895927
0.982874
1.076959
1.149308
1.14801
1.120758
1.066253
0.988714
0.924801
0.843369
0.781078
0.72268
0.683748
0.69121
0.72268
0.780429
0.837853
0.917664
0.989039
1.087341
1.165205
1.156121
1.138926
1.096425
1.044841
0.988714
0.929668
0.869323
0.827147
0.815143
0.830391
0.890411
0.959191
1.014344
1.092857
1.165529
1.246637
1.283298
1.249557
1.201866
1.134059
1.080204
1.01986
0.975088
0.915393
0.866403
0.87419
0.894953
0.966328
1.052627
1.140548
1.228145
1.328394
1.410151
1.417937
1.391334
1.341047
1.260263
1.198297
1.12238
1.065604
1.007856
0.973141
0.991958
1.040299
1.116865
1.206408
1.318012
1.425399
1.540572
1.614218
1.600917
1.577882
1.512347
1.437728
1.376734
1.313795
1.245015
1.195053
1.175911
1.193755
1.252153
1.321257
1.377708
1.451354
1.524675
1.621031
1.681376
1.69338
1.685269
1.654772
1.625574
1.58502
1.55063
1.511049
1.478606
1.501965
1.537653
1.608703
1.673914
1.737503
1.808553
1.892581
1.952925
1.937353
1.9101
1.86176
1.786816
1.715766
1.629791
1.552576
1.474064
1.418586
1.399445
1.410475
1.445514
1.493854
1.56166
1.628169
1.711224
1.763133
1.725499
1.691758
1.634009
1.573989
1.50748
1.431888
1.352078
1.302764
1.270645
1.262534
1.290436
1.328718
1.344291
1.405284
1.474064
1.561012
1.597024
1.579504
1.54187
1.485743
1.428968
1.34494
1.286218
1.228469
1.171369
1.165529
1.175911
1.218087
1.268699
1.330341
1.402689
1.498072
1.571393
1.569447
1.543817
1.481201
1.39912
1.345913
1.276809
1.218736
1.141521
1.086692
1.061387
1.074688
1.117513
1.160338
1.226847
1.292382
1.374463
1.435132
1.419235
1.406258
1.363757
1.313146
1.25637
1.199595
1.136655
1.091559
1.074688
1.073715
1.124975
1.182075
1.230416
1.305359
1.37349
1.452003
1.482175
1.466602
1.419559
1.360837
1.304062
1.231389
1.168125
1.106807
1.054898
1.050032
1.0682
1.109078
1.157094
1.212896
1.283298
1.36765
1.433185
1.431563
1.415342
1.377708
1.318661
1.279729
1.213545
1.158716
1.101941
1.071769
1.080853
1.125624
1.189213
1.240473
1.308928
1.360188
1.409502
1.43935
1.396525
1.364082
1.311524
1.259939
1.212247
1.157094
1.090586
1.038677
1.019211
1.022455
1.059765
1.118811
1.164556
1.241122
1.309577
1.383872
1.406258
1.37933
1.333909
1.282
1.239824
1.19343
1.158067
1.110052
1.064307
1.068849
1.086368
1.133086
1.182724
1.23658
1.294978
1.372517
1.434159
1.421182
1.398147
1.351429
1.282
1.223927
1.148659
1.086044
1.023104
0.993256
0.98547
1.018237
1.062036
1.118811
1.189537
1.270645
1.346238
1.400742
1.377383
1.352726
1.307955
1.261886
1.212247
1.168449
1.118162
1.083124
1.076635
1.078257
1.126273
1.183698
1.23074
1.303088
1.362784
1.420208
1.428319
1.398471
1.347536
1.288165
1.238202
1.175911
1.123029
1.060738
0.999745
0.990336
0.996176
1.051329
1.130166
1.219709
1.321257
1.43643
1.523702
1.512671
1.469522
1.394903
1.298871
1.232038
1.169098
1.122704
1.065929
1.03965
1.03965
1.061711
1.100967
1.141197
1.199919
1.262534
1.330016
1.374139
1.337478
1.299844
1.254424
1.197648
1.15093
1.09967
1.050032
1.016615
1.019211
1.030241
1.080853
1.135357
1.174289
1.240473
1.30763
1.383872
1.3962
1.367001
1.319634
1.26805
1.218087
1.162285
1.119136
1.067875
1.017264
1.018562
1.037379
1.089288
1.15385
1.212247
1.275836
1.349807
1.41372
1.388089
1.362459
1.309577
1.243069
1.183049
1.114918
1.059116
1.006882
0.97963
0.986119
1.027646
1.086044
1.146388
1.231065
1.305359
1.379654
1.42767
1.401716
1.377059
1.339749
1.31347
1.275187
1.211923
1.13633
1.063333
1.017913
0.978657
1.012398
1.063009
1.121082
1.199919
1.271294
1.34786
1.368948
1.348184
1.293031
1.233011
1.18532
1.129842
1.085395
1.047436
1.014669
1.013046
1.0111
1.03381
1.077933
1.124651
1.188564
1.275512
1.351104
1.34494
1.322554
1.275187
1.20803
1.15969
1.097074
1.047436
0.979306
0.949133
0.950756
0.982874
1.036406
1.093181
1.172991
1.249882
1.334883
1.385494
1.355322
1.332612
1.276161
1.222629
1.170396
1.118811
1.060089
1.011424
0.996825
1.002016
1.047112
1.108105
1.165854
1.241771
1.325799
1.419884
1.444216
1.428319
1.386143
1.330341
1.275836
1.20803
1.15093
1.095128
1.035108
1.031863
1.044516
1.096101
1.151903
1.20511
1.263832
1.341047
1.404311
1.384845
1.368299
1.318012
1.261237
1.205434
1.14801
1.096425
1.03965
1.026997
1.067551
1.154499
1.242095
1.303737
1.368948
1.417288
1.458491
1.466926
1.415666
1.368948
1.2966
1.228469
1.149957
1.075662
1.001691
0.946214
0.943943
0.950107
0.999745
1.05652
1.114918
1.19635
1.279729
1.373166
1.415017
1.406258
1.372192
1.324501
1.271618
1.198621
1.135682
1.0682
1.015642
1.007856
1.025699
1.080204
1.146388
1.21095
1.284596
1.366677
1.43935
1.41372
1.39036
1.333261
1.263508
1.196999
1.129842
1.070471
1.009802
0.974115
0.972492
1.010775
1.0682
1.126273
1.215492
1.304386
1.403338
1.466602
1.459464
1.438052
1.382899
1.304386
1.223278
1.153525
1.09675
1.055223
1.059116
1.072417
1.117838
1.159041
1.211923
1.273241
1.353375
1.427995
1.437079
1.410475
1.346562
1.27389
1.209976
1.130166
1.073066
1.015317
0.967302
0.975412
1.010127
1.080528
1.155472
1.229118
1.301791
1.385494
1.455896
1.440323
1.421182
1.369597
1.296275
1.228794
1.152552
1.08215
1.028619
0.995527
0.995527
1.03381
1.096425
1.146063
1.225874
1.300168
1.381276
1.42475
1.391334
1.354673
1.290436
1.227496
1.171694
1.120109
1.060738
1.010127
1.002016
1.009153
1.061711
1.11946
1.182724
1.262534
1.351429
1.438701
1.461087
1.431888
1.36473
1.300493
1.242744
1.17656
1.135682
1.089937
1.042894
1.030241
1.035108
1.078582
1.136006
1.203812
1.274214
1.351753
1.413395
1.392956
1.378032
1.348509
1.301142
1.248908
1.195377
1.131788
1.069498
1.025375
1.007207
1.000069
1.032837
1.087017
1.186293
1.27097
1.362459
1.416315
1.393929
1.367326
1.316066
1.255072
1.184346
1.124975
1.060089
1.002016
0.984172
0.987092
1.02797
1.078257
1.129517
1.192782
1.273241
1.346562
1.366353
1.351429
1.316066
1.262534
1.221332
1.152228
1.097399
1.03965
0.996825
1.009153
1.03673
1.097399
1.157094
1.222954
1.279729
1.360513
1.425399
1.397498
1.376734
1.323203
1.259615
1.201541
1.143792
1.082799
1.049383
1.014669
1.017264
1.046138
1.104212
1.151579
1.228145
1.295951
1.391983
1.443243
1.426048
1.393929
1.338451
1.290436
1.236904
1.191484
1.135033
1.077608
1.063658
1.063982
1.099994
1.128869
1.156121
1.209003
1.300168
1.373166
1.381601
1.360188
1.318012
1.26221
1.204461
1.108105
1.034459
0.978657
0.949133
0.966977
0.996825
1.062036
1.13114
1.194728
1.267401
1.354997
1.427346
1.399769
1.362459
1.306657
1.245988
1.182724
1.11946
1.0536
1.016291
0.9965
1.006882
1.035432
1.080528
1.115567
1.183049
1.249557
1.330989
1.379654
1.358242
1.328718
1.271943
1.221007
1.156121
1.104212
1.03673
0.985794
0.975412
0.983199
1.026997
1.079231
1.133735
1.197972
1.286867
1.360513
1.368299
1.35662
1.314119
1.261886
1.218412
1.145415
1.088639
1.026997
0.983523
0.985794
1.004611
1.059765
1.117838
1.182724
1.248259
1.331638
1.399769
1.38517
1.370246
1.323203
1.269347
1.227171
1.172342
1.111025
1.075662
1.043867
1.037054
1.067875
1.127571
1.184346
1.272267
1.343642
1.412422
1.42475
1.387116
1.342993
1.280378
1.223603
1.163907
1.115567
1.055223
1.001691
0.987092
0.989687
1.047761
1.109403
1.168449
1.242744
1.327096
1.391658
1.390036
1.370246
1.335532
1.27908
1.220683
1.147361
1.10259
1.0536
1.020833
1.034783
1.062684
1.115242
1.164232
1.226847
1.278107
1.338451
1.38225
1.33618
1.289787
1.219385
1.152876
1.105834
1.04841
0.985794
0.942969
0.914419
0.917664
0.955946
1.015642
1.071444
1.163583
1.246637
1.344291
1.375437
1.358891
1.333585
1.291084
1.239824
1.1824
1.139575
1.082799
1.024726
1.012073
1.021806
1.066578
1.115242
1.162285
1.227496
1.305035
1.369597
1.369272
1.342993
1.305359
1.264481
1.230091
1.152228
1.100643
1.032512
0.98547
0.986443
1.017913
1.074688
1.145415
1.219709
1.286542
1.362135
1.420857
1.39912
1.37933
1.326123
1.258641
1.206083
1.154174
1.101292
1.051978
1.007856
0.997474
1.023104
1.075662
1.11362
1.191159
1.258641
1.345264
1.367001
1.351753
1.333261
1.290436
1.25053
1.201217
1.161312
1.102265
1.037054
1.017264
1.012722
1.052627
1.095777
1.130166
1.188888
1.269347
1.342993
1.34786
1.325474
1.280703
1.231065
1.186617
1.112323
1.063009
1.001042
0.968275
0.972168
1.001042
1.043219
1.089937
1.152876
1.218736
1.296924
1.363757
1.348833
1.333585
1.30763
1.256695
1.21095
1.147361
1.083448
1.03089
0.99131
0.961137
0.98547
1.061387
1.136979
1.227171
1.308279
1.4108
1.431563
1.391658
1.349158
1.300493
1.249233
1.178182
1.114269
1.037703
0.970221
0.954324
0.95108
0.993581
1.059765
1.116865
1.191484
1.275512
1.342669
1.341371
1.321905
1.281676
1.229118
1.181751
1.109727
1.057169
0.995527
0.97087
0.972492
0.991958
1.041921
1.093181
1.149632
1.203488
1.277783
1.342669
1.31931
1.286542
1.233011
1.172342
1.125624
1.068849
1.007207
0.965031
0.947836
0.954973
0.998123
1.058142
1.117838
1.207057
1.284596
1.383872
1.406258
1.384521
1.345589
1.290436
1.225549
1.160663
1.105185
1.044516
0.980603
0.967302
0.975737
1.020184
1.069822
1.121082
1.187915
1.269023
1.342993
1.340398
1.322879
1.285893
1.24242
1.207381
1.146388
1.104212
1.047436
1.019211
1.013695
1.038677
1.112323
1.19927
1.278756
1.338776
1.408529
1.461735
1.416964
1.362135
1.292707
1.229767
1.167151
1.076311
0.971195
0.903389
0.879705
0.877758
0.914095
0.978657
1.041596
1.148334
1.250855
1.360513
1.381925
1.358891
1.296275
1.241122
1.194404
1.150605
1.111025
1.061711
0.996825
0.986767
0.989039
1.02505
1.05944
1.097074
1.155472
1.232038
1.30763
1.298871
1.277458
1.228469
1.170071
1.12238
1.050356
0.998123
0.941023
0.918312
0.920259
0.955946
1.014669
1.077608
1.150281
1.223278
1.306333
1.371868
1.352726
1.335207
1.288813
1.231713
1.181102
1.123029
1.061387
1.012398
0.9965
0.987092
1.023428
1.075986
1.118811
1.190186
1.26221
1.347536
1.367326
1.346887
1.308604
1.260263
1.203163
1.145739
1.105509
1.060089
1.006882
1.013371
1.028944
1.075337
1.114269
1.173316
1.242095
1.327745
1.415666
1.419559
1.403338
1.349807
1.296275
1.24242
1.146388
1.053276
0.96795
0.915393
0.908904
0.941347
0.985145
1.041272
1.102265
1.15093
1.215492
1.286218
1.278432
1.259615
1.217763
1.161961
1.116216
1.065929
1.012398
0.971844
0.95984
0.963733
1.011424
1.074688
1.130166
1.213545
1.292058
1.375437
1.381276
1.356295
1.310875
1.249557
1.189213
1.121407
1.061387
0.995852
0.930316
0.918637
0.927397
0.977359
1.028619
1.081502
1.153201
1.248584
1.330341
1.332287
1.319959
1.275836
1.225225
1.182724
1.112647
1.040948
0.972168
0.932263
0.92253
0.957244
1.017588
1.079879
1.162609
1.240473
1.322554
1.396525
1.383547
1.363433
1.300817
1.229118
1.163907
1.104861
1.046787
1.000394
0.989687
0.982225
1.016615
1.061387
1.112647
1.18532
1.259939
1.331963
1.354349
1.345913
1.310875
1.257668
1.203488
1.139575
1.092857
1.043219
0.984172
0.987416
1.004936
1.070795
1.116216
1.15677
1.210625
1.294004
1.357593
1.330665
1.294978
1.237878
1.178507
1.127246
1.055223
0.985145
0.91377
0.875487
0.875487
0.917664
0.97671
1.040299
1.118487
1.204461
1.291733
1.365379
1.349158
1.333261
1.285893
1.229442
1.172342
1.115567
1.050356
1.001042
0.981252
0.972492
1.005585
1.048085
1.086692
1.157743
1.23366
1.312821
1.333261
1.313146
1.274538
1.221332
1.169747
1.106158
1.05652
1.009802
0.958866
0.971844
0.994554
1.061387
1.117189
1.187591
1.264805
1.348509
1.417937
1.396849
1.371543
1.321905
1.266103
1.208354
1.140873
1.084097
1.026024
0.991958
0.975737
1.002989
1.070471
1.141521
1.217763
1.277783
1.335207
1.37933
1.345913
1.299844
1.23366
1.172342
1.115891
1.058791
0.996825
0.954
0.945889
0.947511
0.987741
1.032188
1.067875
1.129517
1.201217
1.281351
1.303088
1.285893
1.248584
1.196026
1.156121
1.097399
1.049058
1.001042
0.949782
0.955622
0.983199
1.047436
1.101616
1.160338
1.231713
1.313146
1.38225
1.363757
1.331638
1.273241
1.218087
1.166827
1.100967
1.04841
0.992932
0.968599
0.960813
0.987416
1.032188
1.077933
1.146388
1.215167
1.29368
1.358242
1.336505
1.315417
1.25637
1.206408
1.172991
1.140548
1.097074
1.043543
1.016615
1.016615
1.048085
1.094154
1.129193
1.197648
1.27908
1.360837
1.366028
1.330665
1.276809
1.212572
1.167476
1.106483
1.060413
1.008504
0.955946
0.963408
0.992932
1.058467
1.11946
1.178831
1.231065
1.308928
1.375761
1.368948
1.349807
1.304062
1.259939
1.222305
1.159365
1.09383
1.024077
0.988065
0.981901
1.012073
1.061062
1.107456
1.176884
1.238202
1.304062
1.357268
1.337478
1.324176
1.271294
1.214519
1.152876
1.100967
1.035757
0.994554
0.980928
0.978657
1.014669
1.065604
1.120433
1.200244
1.282
1.371219
1.382899
1.353375
1.308928
1.252153
1.200892
1.133735
1.083448
1.031539
0.981252
0.981901
1.004936
1.057818
1.112971
1.176236
1.246962
1.340074
1.409502
1.396525
1.368948
1.328394
1.275512
1.227171
1.155472
1.089612
1.029268
1.000394
0.99131
1.025375
1.078906
1.126273
1.194404
1.257668
1.334558
1.380952
1.350455
1.317688
1.257668
1.196026
1.14509
1.098048
1.031539
0.97963
0.960489
0.945889
0.970546
1.015966
1.064631
1.141521
1.231389
1.353375
1.407231
1.406582
1.378032
1.321581
1.255072
1.155796
1.090586
1.032837
0.984821
0.981901
0.986767
1.01986
1.055871
1.101941
1.156445
1.237878
1.308279
1.295302
1.285569
1.246637
1.200244
1.155796
1.09675
1.045165
0.990012
0.975737
0.985145
1.024402
1.08507
1.137304
1.217114
1.289138
1.37641
1.428968
1.417288
1.384521
1.327745
1.259615
1.193106
1.124651
1.052303
0.986119
0.95692
0.948809
0.991634
1.04841
1.098048
1.177858
1.26513
1.353051
1.363757
1.343967
1.305684
1.252801
1.219061
1.160987
1.11946
1.075662
1.035757
1.043543
1.076311
1.13114
1.180453
1.22782
1.278107
1.356295
1.42475
1.405284
1.368299
1.278756
1.196675
1.124651
1.046463
0.984496
0.940049
0.918637
0.921881
0.957893
1.044516
1.127571
1.23658
1.321581
1.407555
1.447785
1.421182
1.388089
1.326123
1.241122
1.155472
1.079231
0.993905
0.919935
0.898198
0.910526
0.958218
1.010775
1.062036
1.134384
1.220358
1.302764
1.308928
1.285893
1.238202
1.188888
1.140224
1.066902
1.017264
0.973466
0.940698
0.951729
0.980279
1.036406
1.084746
1.134059
1.187266
1.262859
1.32807
1.31055
1.284596
1.231389
1.174289
1.126922
1.06528
1.005585
0.961137
0.933885
0.931939
0.961462
1.017588
1.072742
1.167476
1.245664
1.335207
1.375437
1.35662
1.325474
1.270645
1.205759
1.136979
1.081826
1.013371
0.95692
0.938752
0.950107
0.990661
1.052627
1.107456
1.195701
1.286867
1.371868
1.37641
1.345589
1.296924
1.234958
1.195377
1.141846
1.108429
1.053276
1.003314
0.979954
0.974115
0.997798
1.034135
1.084097
1.150605
1.243717
1.317363
1.307955
1.2966
1.25345
1.199919
1.149632
1.083448
1.016615
0.963408
0.934534
0.942645
0.984172
1.031863
1.075662
1.163583
1.255397
1.359215
1.412097
1.399445
1.36765
1.309253
1.228469
1.155472
1.078582
0.992932
0.903713
0.872892
0.875487
0.921881
0.992607
1.049058
1.132437
1.228145
1.311199
1.31347
1.286218
1.247611
1.198946
1.158392
1.087666
1.038352
0.974764
0.931939
0.930641
0.955946
1.004611
1.063009
1.12238
1.184671
1.270321
1.349158
1.338127
1.322879
1.273241
1.21679
1.146712
1.072417
1.00818
0.97963
0.959191
0.960813
0.995203
1.039325
1.083773
1.162934
1.232362
1.312172
1.355971
1.337478
1.309253
1.260588
1.198946
1.133411
1.076311
1.026673
0.989039
0.987416
0.991958
1.02505
1.076635
1.139899
1.225549
1.327096
1.392956
1.38517
1.358242
1.309901
1.247286
1.198621
1.115242
1.055223
0.984821
0.936156
0.929343
0.94524
0.992607
1.040299
1.095128
1.162609
1.244042
1.320283
1.299195
1.27389
1.230091
1.186617
1.142495
1.081177
1.013046
0.97087
0.957244
0.961137
0.995852
1.048085
1.094154
1.163583
1.223603
1.303088
1.348509
1.329367
1.299195
1.248584
1.1824
1.124975
1.083124
1.031863
0.975412
0.967626
0.967626
1.008504
1.062684
1.121082
1.206408
1.30244
1.369272
1.35662
1.331314
1.285893
1.236904
1.199919
1.13633
1.089288
1.027646
0.96795
0.958542
0.980928
1.037054
1.097723
1.156121
1.229767
1.317039
1.37641
1.346238
1.317688
1.269672
1.21387
1.158392
1.078582
0.98547
0.906308
0.88522
0.894629
0.943294
1.006882
1.064956
1.151579
1.231713
1.320283
1.363108
1.339425
1.289138
1.226522
1.14801
1.088315
1.040299
0.988065
0.925125
0.911499
0.918961
0.95984
1.018886
1.073066
1.148983
1.235607
1.313146
1.323203
1.312497
1.272267
1.222629
1.172342
1.098696
1.046463
0.990661
0.94816
0.953027
0.978657
1.03673
1.098048
1.170071
1.235931
1.308279
1.369597
1.342993
1.314768
1.257992
1.202515
1.138926
1.065929
0.994554
0.945565
0.92545
0.931614
0.974764
1.021482
1.059116
1.121407
1.201541
1.301466
1.355971
1.341371
1.317039
1.292058
1.249882
1.208679
1.162609
1.092857
1.004287
0.973141
0.973141
1.013371
1.072742
1.119136
1.19343
1.282325
1.359215
1.363433
1.339749
1.271618
1.197972
1.141197
1.0682
1.021157
0.962435
0.92545
0.931939
0.965679
1.022779
1.077933
1.154499
1.243717
1.354997
1.436754
1.420857
1.395551
1.328718
1.238202
1.144441
1.047436
0.945889
0.876785
0.854724
0.852453
0.895927
0.962111
1.022455
1.115242
1.205759
1.301142
1.355646
1.342345
1.313795
1.269996
1.21679
1.158067
1.097399
1.025375
0.95692
0.942969
0.94232
0.989363
1.050032
1.105185
1.176236
1.255721
1.329692
1.319634
1.294004
1.245988
1.19343
1.156121
1.099994
1.048085
0.992607
0.950431
0.947187
0.974764
1.023428
1.079879
1.151254
1.221007
1.301142
1.376086
1.360513
1.347211
1.306333
1.264157
1.210625
1.138277
1.062684
1.006558
0.96795
0.950431
0.986443
1.045165
1.094479
1.164556
1.240149
1.326772
1.360513
1.332936
1.289787
1.226522
1.159365
1.093181
1.038028
0.984172
0.932587
0.9394
0.957569
1.029917
1.111025
1.190186
1.281351
1.376734
1.448758
1.435781
1.405933
1.333909
1.260263
1.178182
1.089288
1.009802
0.923503
0.868999
0.855697
0.881003
0.928694
0.978008
1.04549
1.122704
1.208679
1.287516
1.270645
1.258317
1.211923
1.172018
1.128869
1.076635
1.024402
0.988714
0.984172
0.989687
1.031539
1.088315
1.144117
1.216465
1.282325
1.342993
1.360513
1.328718
1.284596
1.2249
1.177209
1.133735
1.081502
1.00526
0.916041
0.887816
0.886843
0.931939
0.987741
1.064307
1.160338
1.275836
1.373814
1.380628
1.362135
1.294653
1.238526
1.201866
1.152228
1.100643
1.032837
0.968599
0.948809
0.967302
1.005585
1.041596
1.106483
1.166178
1.241122
1.309901
1.294329
1.284596
1.247935
1.206083
1.148983
1.089937
1.026673
0.981901
0.958542
0.959191
0.999745
1.051654
1.113296
1.195701
1.281676
1.362459
1.392956
1.374139
1.328718
1.268699
1.196026
1.119136
1.057494
0.990661
0.917339
0.903064
0.902091
0.949458
0.994878
1.047436
1.124327
1.222629
1.306333
1.309577
1.304062
1.273241
1.23074
1.190511
1.131788
1.071769
1.011424
0.974439
0.965355
0.988714
1.040623
1.082475
1.143792
1.209003
1.287516
1.359864
1.341371
1.322554
1.262859
1.201217
1.143792
1.083773
1.017588
0.983848
0.981901
1.001367
1.047112
1.116216
1.180453
1.252153
1.311524
1.368299
1.374463
1.337154
1.288165
1.22198
1.167476
1.106158
1.069822
1.033486
0.976061
0.977359
0.979306
1.026673
1.078257
1.131464
1.193755
1.286542
1.348833
1.349807
1.326772
1.281351
1.228794
1.171369
1.09675
1.026673
0.961786
0.919935
0.909228
0.927072
0.972168
1.0111
1.076959
1.141846
1.225874
1.301466
1.297897
1.285893
1.240797
1.193106
1.136006
1.076635
0.999745
0.952053
0.940374
0.947187
0.98255
1.036406
1.087017
1.166178
1.253126
1.329367
1.359215
1.342993
1.306333
1.242095
1.176236
1.108429
1.064956
1.013371
0.956271
0.960489
0.976386
1.044841
1.117513
1.193106
1.266103
1.363108
1.419884
1.388414
1.346887
1.278756
1.209328
1.150281
1.080853
1.022455
0.973466
0.94232
0.94816
0.977035
1.024402
1.067551
1.144766
1.222954
1.310875
1.395551
1.386143
1.367001
1.31055
1.245988
1.18824
1.121082
1.042894
0.988065
0.958218
0.940049
0.959191
1.001367
1.05652
1.13633
1.221656
1.301791
1.327745
1.307955
1.268374
1.212247
1.153201
1.082799
1.036081
0.989687
0.937454
0.940698
0.960489
1.017588
1.080853
1.155472
1.237553
1.332936
1.403338
1.387441
1.357917
1.303737
1.239824
1.180129
1.105509
1.040299
0.967302
0.918312
0.912473
0.945565
0.997149
1.047436
1.112323
1.178182
1.255397
1.329692
1.328394
1.339425
1.325799
1.308279
1.264805
1.198621
1.104212
1.022131
0.969573
0.946214
0.966977
1.018237
1.066253
1.121731
1.187266
1.266428
1.296275
1.279729
1.24242
1.184346
1.137953
1.077284
1.028295
0.98547
0.937454
0.933885
0.941023
0.993581
1.068524
1.14801
1.240797
1.350131
1.433185
1.432212
1.413071
1.358242
1.287191
1.220358
1.136006
1.069173
1.001691
0.960489
0.944267
0.961462
0.995852
1.029592
1.083448
1.132437
1.202839
1.263183
1.25053
1.240797
1.212572
1.181102
1.136655
1.087341
1.022455
0.983848
0.981252
0.98839
1.020184
1.064956
1.100967
1.171369
1.238526
1.318661
1.343642
1.329367
1.294978
1.243393
1.193755
1.130491
1.091234
1.03965
0.993256
0.97671
0.990661
1.041596
1.09967
1.162285
1.229118
1.317363
1.384196
1.367326
1.343967
1.291733
1.229442
1.190511
1.134059
1.092857
1.034783
1.013695
1.020833
1.040299
1.065929
1.092857
1.163907
1.229442
1.297573
1.342669
1.315092
1.282649
1.235931
1.174938
1.111349
1.065929
1.020508
0.99131
1.003638
1.015642
1.059116
1.108754
1.153525
1.231713
1.296924
1.367001
1.367975
1.325474
1.269996
1.20219
1.149308
1.077608
1.03381
0.965355
0.905335
0.878407
0.891709
0.946214
1.009802
1.07112
1.147361
1.247935
1.327096
1.312821
1.301466
1.265454
1.225549
1.19343
1.138602
1.085719
1.025375
0.986767
0.978657
0.996825
1.038352
1.074364
1.134384
1.188564
1.261237
1.306333
1.294329
1.265454
1.217763
1.16488
1.111025
1.053925
0.988714
0.944267
0.947187
0.966004
1.025699
1.095452
1.15969
1.236904
1.304386
1.380952
1.400742
1.384521
1.334558
1.267076
1.202839
1.11654
1.052303
0.984496
0.928045
0.914419
0.936156
0.983848
1.03965
1.106807
1.174938
1.261561
1.34786
1.3391
1.323852
1.295951
1.264805
1.233336
1.183373
1.144441
1.092208
1.034783
1.000394
1.011749
1.050681
1.075986
1.123678
1.166503
1.237553
1.285893
1.273565
1.248584
1.198946
1.152228
1.08507
1.01986
0.957569
0.907606
0.904037
0.924801
0.984821
1.059116
1.11946
1.199919
1.278107
1.353051
1.362135
1.352078
1.313795
1.255072
1.187266
1.107456
1.055223
0.989363
0.934858
0.92545
0.937129
0.987092
1.04841
1.114269
1.195701
1.294978
1.369272
1.354024
1.331314
1.278107
1.221656
1.168449
1.105185
1.052303
1.002016
0.968275
0.95984
0.993256
1.040948
1.088963
1.166503
1.236255
1.31639
1.363433
1.342345
1.309577
1.253775
1.200568
1.152876
1.077608
0.993905
0.932263
0.916366
0.914419
0.954324
1.014344
1.071444
1.144766
1.212572
1.300168
1.320283
1.317363
1.271943
1.221007
1.185969
1.125624
1.080204
1.014669
0.962435
0.951729
0.968924
1.012398
1.073715
1.136006
1.209652
1.302115
1.377383
1.357593
1.335532
1.283947
1.221007
1.160987
1.085395
1.018886
0.959191
0.919935
0.92253
0.970546
1.020833
1.062684
1.126273
1.190511
1.271943
1.316066
1.295302
1.262534
1.211923
1.160663
1.114269
1.067227
1.01694
0.968275
0.960813
0.954973
0.992607
1.044192
1.089288
1.150605
1.225549
1.297249
1.313146
1.304062
1.262859
1.201866
1.137953
1.060413
1.016291
0.969573
0.932912
0.940049
0.972817
1.028619
1.099021
1.159365
1.220683
1.28784
1.346887
1.320608
1.288489
1.235282
1.17656
1.126598
1.073391
1.020184
0.974439
0.945565
0.934858
0.964382
1.013695
1.067227
1.147686
1.2249
1.311524
1.355646
1.341696
1.309577
1.260912
1.206408
1.140548
1.066902
0.986767
0.914744
0.892033
0.895278
0.946214
1.010775
1.065604
1.142819
1.227496
1.300168
1.312172
1.294653
1.255072
1.202515
1.153525
1.085719
1.04257
0.987741
0.940374
0.941023
0.974439
1.041596
1.115891
1.184022
1.261237
1.350131
1.409826
1.368948
1.328394
1.254748
1.184346
1.118162
1.049383
0.975412
0.924801
0.895602
0.88522
0.926423
0.983523
1.036081
1.130491
1.218412
1.313795
1.377383
1.365379
1.338127
1.292382
1.224251
1.148659
1.068849
0.986767
0.912797
0.903064
0.909553
0.97087
1.022779
1.076311
1.145415
1.234958
1.300817
1.294978
1.277134
1.235282
1.177533
1.1253
1.051654
1.001367
0.948485
0.909877
0.923503
0.962111
1.041272
1.122055
1.19635
1.267401
1.348509
1.405284
1.361486
1.323203
1.257668
1.188888
1.116865
1.036081
0.962111
0.912148
0.884896
0.888789
0.941347
1.000718
1.068849
1.172667
1.270645
1.362459
1.409502
1.376086
1.330989
1.268699
1.193106
1.114269
1.039974
0.96276
0.883274
0.873216
0.874839
0.926423
0.978008
1.034783
1.104212
1.191159
1.267725
1.274863
1.260263
1.21679
1.165529
1.114918
1.053925
1.006558
0.960813
0.923179
0.939076
0.97671
1.039001
1.108429
1.178831
1.257343
1.342345
1.412097
1.386143
1.355646
1.289787
1.22198
1.155796
1.085395
1.017264
0.975412
0.952702
0.941671
0.966977
1.009153
1.054249
1.129842
1.221656
1.311848
1.358242
1.326447
1.29076
1.231713
1.173965
1.111349
1.060738
1.003314
0.936805
0.918961
0.910202
0.956595
1.006233
1.060413
1.135682
1.218736
1.291084
1.295951
1.288489
1.251179
1.191484
1.130815
1.079231
1.038352
0.992607
0.944916
0.947187
0.974764
1.028944
1.09383
1.158067
1.227496
1.311524
1.369597
1.330341
1.303413
1.237553
1.174938
1.107132
1.040948
0.97963
0.934858
0.911824
0.908904
0.949458
1.002989
1.054249
1.120433
1.19343
1.271943
1.314443
1.297897
1.266428
1.218087
1.177209
1.133735
1.09675
1.056196
1.011424
1.006233
0.999745
1.034783
1.080528
1.132762
1.200244
1.276161
1.330989
1.326772
1.309577
1.273241
1.231713
1.181426
1.112971
1.05652
0.996825
0.945889
0.936805
0.947511
0.984496
1.045165
1.114918
1.169098
1.2249
1.276809
1.251828
1.239824
1.189213
1.140873
1.100967
1.055547
1.011424
0.984821
0.970221
0.978657
1.023428
1.052627
1.081826
1.133411
1.190835
1.25345
1.288489
1.267401
1.238202
1.190511
1.136006
1.073715
1.013695
0.946862
0.895602
0.901118
0.914095
0.975088
1.049383
1.13114
1.223603
1.321581
1.3962
1.374788
1.330016
1.266103
1.189537
1.136006
1.063333
1.000718
0.930641
0.873216
0.871594
0.901118
0.963084
1.015317
1.080528
1.143144
1.219385
1.282649
1.266428
1.254099
1.21679
1.177858
1.12238
1.0682
0.996176
0.947187
0.918637
0.917664
0.953027
0.996176
1.042894
1.119136
1.19635
1.284271
1.337154
1.319959
1.29076
1.238851
1.192782
1.123029
1.057169
0.987741
0.924801
0.91669
0.914419
0.961137
1.019535
1.09675
1.180453
1.285245
1.363757
1.367326
1.341696
1.281027
1.209976
1.137953
1.059116
0.992283
0.923179
0.881327
0.888789
0.926423
0.99942
1.064307
1.130491
1.176236
1.235931
1.280378
1.24534
1.214843
1.166503
1.12822
1.087666
1.03673
0.971519
0.920583
0.904037
0.908579
0.936481
0.981252
1.036406
1.108105
1.174938
1.252153
1.282974
1.260912
1.22782
1.17072
1.11362
1.039325
0.982874
0.929019
0.884896
0.906308
0.937454
1.00526
1.065929
1.123029
1.176884
1.255072
1.317039
1.309253
1.274863
1.208679
1.135682
1.055223
0.98839
0.927072
0.868674
0.839151
0.84564
0.882301
0.950756
1.010127
1.097399
1.172342
1.259939
1.323852
1.297249
1.270321
1.209652
1.150605
1.090261
1.035108
0.963733
0.92545
0.908579
0.907282
0.945565
0.992283
1.037054
1.109727
1.18824
1.269347
1.30244
1.277783
1.231713
1.17656
1.128869
1.066578
1.001367
0.938103
0.888465
0.898198
0.915717
0.969573
1.040948
1.123029
1.19927
1.299844
1.375761
1.368624
1.323852
1.256046
1.174289
1.102914
1.015317
0.949133
0.882301
0.842071
0.850182
0.898198
0.975088
1.053925
1.145415
1.227171
1.317039
1.368948
1.324825
1.267401
1.200568
1.143468
1.079231
1.026024
0.971844
0.937129
0.923179
0.93129
0.978008
1.035757
1.085719
1.174613
1.260588
1.33618
1.354349
1.324501
1.278107
1.220683
1.176236
1.112647
1.058467
1.00234
0.953351
0.956271
0.962111
1.005909
1.052627
1.107456
1.166827
1.246313
1.306008
1.29952
1.279729
1.239175
1.189537
1.149632
1.089937
1.035757
0.98255
0.955298
0.961462
1.001042
1.073715
1.13925
1.224576
1.295951
1.38225
1.438376
1.403987
1.358242
1.288813
1.224251
1.157743
1.093505
1.024726
0.985145
0.981901
0.994878
1.05652
1.12822
1.17948
1.244366
1.304711
1.360837
1.357917
1.32223
1.270321
1.203488
1.15677
1.096425
1.048734
1.00526
0.986119
1.018562
1.053925
1.115567
1.171045
1.215492
1.267076
1.340722
1.386792
1.360188
1.318661
1.260588
1.191808
1.128544
1.068524
1.024402
0.980603
0.954324
0.961786
1.003638
1.072742
1.13925
1.225549
1.300493
1.379979
1.429617
1.394254
1.337803
1.265454
1.207057
1.154823
1.116865
1.069822
1.031215
1.019211
1.025375
1.061062
1.107132
1.140873
1.197972
1.259939
1.322554
1.337154
1.313146
1.278107
1.230091
1.190835
1.129193
1.084097
1.03381
0.994554
0.994878
1.01986
1.074364
1.125624
1.184022
1.244691
1.323852
1.383547
1.366353
1.346238
1.30763
1.250206
1.205759
1.14801
1.101941
1.051329
1.015317
1.015317
1.0536
1.106483
1.158067
1.230416
1.289462
1.368299
1.415991
1.377383
1.340722
1.282649
1.231713
1.194728
1.160987
1.126598
1.098048
1.09091
1.099994
1.132762
1.156445
1.160987
1.203812
1.252477
1.308279
1.308928
1.277458
1.243717
1.202839
1.160663
1.086368
1.037054
0.997798
0.968924
0.986119
1.018562
1.086368
1.148983
1.200892
1.274214
1.362135
1.43059
1.420208
1.388738
1.336829
1.262534
1.194079
1.121731
1.065929
1.001367
0.971519
0.969573
1.007531
1.058467
1.110376
1.184671
1.25053
1.325474
1.368299
1.342345
1.324176
1.286218
1.23366
1.181751
1.123029
1.058791
1.002665
0.994878
0.995852
1.034459
1.086044
1.122055
1.18532
1.256046
1.345264
1.366028
1.350455
1.309901
1.263183
1.212247
1.150281
1.103238
1.051005
1.001367
0.998771
1.017913
1.064307
1.12238
1.180453
1.237553
1.308928
1.379005
1.379654
1.365379
1.325799
1.267076
1.219061
1.171694
1.135357
1.081502
1.053925
1.047112
1.070146
1.106158
1.126273
1.158716
1.215492
1.305684
1.355971
1.331963
1.297249
1.243069
1.178182
1.118487
1.053925
0.990336
0.939076
0.930965
0.930316
0.96795
1.021157
1.0682
1.134384
1.206732
1.308604
1.345589
1.349158
1.319634
1.286218
1.244042
1.174289
1.118811
1.055223
1.002016
0.994554
1.014993
1.05944
1.105185
1.151903
1.208354
1.282974
1.351429
1.330016
1.298871
1.237229
1.162609
1.100643
1.028619
0.978008
0.929992
0.910526
0.927721
0.983199
1.046787
1.104861
1.183698
1.243069
1.319959
1.358566
1.3391
1.308928
1.264805
1.211274
1.149957
1.081502
1.006882
0.949782
0.937454
0.946214
0.989687
1.03381
1.072093
1.143144
1.216141
1.304062
1.335856
1.338776
1.309577
1.272916
1.233336
1.158067
1.087017
1.017588
0.974764
0.977359
0.98255
1.009153
1.053925
1.099994
1.157094
1.235282
1.314443
1.313795
1.308928
1.264157
1.199919
1.128869
1.051654
0.988714
0.930641
0.892033
0.885545
0.92545
0.98547
1.03673
1.119784
1.196026
1.291733
1.339425
1.32223
1.299195
1.251828
1.19927
1.138602
1.074688
1.011424
0.953027
0.941347
0.942645
0.988714
1.032512
1.073715
1.142819
1.223278
1.298546
1.310875
1.299844
1.258317
1.211923
1.1678
1.100643
1.04549
0.98839
0.940698
0.935183
0.965031
1.023753
1.089612
1.143792
1.201541
1.270321
1.337154
1.306657
1.279729
1.21095
1.14217
1.082475
1.012398
0.950107
0.899171
0.885545
0.893007
0.930641
0.981252
1.037703
1.12238
1.206732
1.296275
1.343642
1.310875
1.273241
1.203812
1.135682
1.085719
1.03965
0.983199
0.924152
0.912473
0.911824
0.95692
1.00234
1.050681
1.121407
1.189862
1.249233
1.261237
1.258317
1.209976
1.139575
1.083124
1.020508
0.985145
0.941347
0.903064
0.909553
0.934534
0.99131
1.049058
1.098372
1.155148
1.229118
1.291084
1.267076
1.251179
1.205434
1.151903
1.105834
1.058467
1.00818
0.966653
0.935183
0.927072
0.954
0.990012
1.020508
1.082475
1.15385
1.239824
1.272916
1.245988
1.218087
1.172991
1.117513
1.057169
0.993905
0.935183
0.880354
0.873865
0.880678
0.929019
0.974115
1.01986
1.08799
1.173965
1.247935
1.251179
1.226847
1.174613
1.118487
1.060738
0.978657
0.917015
0.849208
0.784647
0.777834
0.798273
0.843693
0.895278
0.948809
1.010451
1.090261
1.158392
1.128544
1.081177
0.990012
0.884896
0.772318
0.668176
0.589663
0.541972
0.517964
0.519586
0.554949
0.609454
0.666229
0.755772
0.837853
0.928045
0.963084
0.9394
0.909228
0.858941
0.797624
0.738902
0.69121
0.628595
0.562411
0.536781
0.51991
0.562411
0.60264
0.662336
0.753177
0.855048
0.92545
0.92837
0.897873
0.837853
0.758043
0.692832
0.610751
0.550731
0.491685
0.448211
0.461837
0.506284
0.576686
0.641572
0.715543
0.787566
0.882301
0.967302
0.957893
0.941996
0.893331
0.830716
0.768101
0.694455
0.626324
0.578308
0.534834
0.525101
0.553002
0.609129
0.661363
0.749284
0.828769
0.924477
0.962111
0.94232
0.908579
0.851804
0.795353
0.744093
0.70873
0.675638
0.643519
0.664282
0.6831
0.741822
0.791135
0.840449
0.895602
0.97671
1.022455
1.007531
0.967302
0.907606
0.838502
0.77686
0.701592
0.656172
0.609129
0.573766
0.593232
0.62308
0.687966
0.740848
0.811899
0.882301
0.959515
1.025375
0.997798
0.974439
0.927072
0.890736
0.856995
0.820983
0.789513
0.769723
0.741822
0.727871
0.750257
0.793406
0.830067
0.898198
0.955298
1.032837
1.04841
1.001042
0.940698
0.863808
0.805735
0.75415
0.711649
0.664931
0.615942
0.626324
0.647088
0.707756
0.77102
0.831689
0.905984
0.999096
1.069173
1.078906
1.067227
1.034459
0.988714
0.947836
0.892358
0.856022
0.806059
0.767127
0.774265
0.795028
0.852128
0.904037
0.961786
1.013695
1.085395
1.157094
1.157419
1.157743
1.115567
1.057494
0.997798
0.936156
0.855697
0.794055
0.752528
0.749284
0.775563
0.815468
0.868999
0.962435
1.064956
1.166827
1.200244
1.17072
1.138926
1.080204
1.031539
0.986767
0.951404
0.898847
0.830067
0.818063
0.825849
0.873216
0.923503
0.97087
1.03673
1.124651
1.200244
1.209003
1.201541
1.168449
1.120758
1.082799
1.023104
0.970546
0.907282
0.859915
0.861537
0.887816
0.959191
1.040623
1.118162
1.182724
1.256695
1.302764
1.259615
1.215492
1.153201
1.082475
1.018562
0.952702
0.877434
0.834609
0.821307
0.840449
0.8969
0.969248
1.027646
1.106483
1.179155
1.267401
1.286542
1.242095
1.195053
1.124327
1.063009
0.995203
0.950756
0.908255
0.86543
0.868026
0.879705
0.924801
0.978008
1.031863
1.102265
1.192782
1.26513
1.272592
1.255397
1.219061
1.174938
1.130815
1.068524
1.024402
0.972492
0.939076
0.940049
0.967626
1.019211
1.076311
1.146388
1.209652
1.288165
1.349807
1.32807
1.303413
1.248259
1.183049
1.130166
1.074688
1.013046
0.980279
0.958542
0.959191
0.985794
1.036081
1.074364
1.132762
1.208679
1.319959
1.363757
1.354997
1.333585
1.299844
1.266752
1.210625
1.158716
1.075013
0.994229
0.968924
0.951404
0.978332
1.018886
1.069173
1.122704
1.197648
1.25929
1.26805
1.25637
1.224251
1.184671
1.159365
1.109403
1.071444
1.016291
0.984821
0.983523
1.013371
1.065929
1.106158
1.166503
1.222954
1.288489
1.349158
1.334883
1.304711
1.248259
1.190186
1.134708
1.081826
1.023428
0.992932
0.971195
0.972817
0.99942
1.044841
1.086044
1.146712
1.208354
1.297897
1.31639
1.297897
1.263508
1.21679
1.179155
1.129842
1.095128
1.058142
1.022131
1.03673
1.051978
1.100643
1.161961
1.227171
1.289462
1.375437
1.442918
1.428643
1.386467
1.318661
1.24242
1.180453
1.09967
1.035757
0.963733
0.921232
0.91669
0.944916
1.0111
1.077933
1.156445
1.226522
1.315741
1.382899
1.365055
1.348184
1.312172
1.264481
1.206732
1.154174
1.088639
1.044516
1.022779
1.028619
1.066253
1.123029
1.163583
1.237229
1.301142
1.383223
1.40204
1.37057
1.324825
1.267401
1.219709
1.154499
1.110376
1.058467
1.005909
0.998771
1.011749
1.060089
1.102914
1.159365
1.230416
1.320932
1.398796
1.398796
1.385818
1.347211
1.298222
1.254099
1.189213
1.131788
1.073715
1.03673
1.032512
1.055871
1.106158
1.168125
1.240149
1.300817
1.371219
1.425724
1.401391
1.374463
1.32515
1.266752
1.21095
1.161312
1.107132
1.065929
1.058467
1.070795
1.127571
1.20219
1.264157
1.353051
1.44746
1.53895
1.547385
1.501316
1.41372
1.334234
1.247611
1.146388
1.072093
1.0111
0.965355
0.96795
0.995203
1.053925
1.111025
1.16488
1.226198
1.307955
1.375437
1.366353
1.3537
1.318986
1.272592
1.229767
1.166827
1.114594
1.06236
1.038677
1.047761
1.099994
1.172667
1.240473
1.326447
1.401716
1.487041
1.551928
1.525973
1.496125
1.445838
1.374463
1.297249
1.221332
1.135033
1.069822
1.041596
1.036081
1.078906
1.135033
1.178507
1.258966
1.352078
1.454274
1.47893
1.463358
1.434159
1.415342
1.390685
1.342345
1.303737
1.253775
1.200568
1.190835
1.191159
1.225549
1.259939
1.29076
1.333261
1.384845
1.434808
1.423453
1.403987
1.357268
1.302764
1.261886
1.201866
1.150605
1.097399
1.077608
1.079879
1.124327
1.192457
1.258966
1.328394
1.396525
1.476984
1.536355
1.530515
1.507156
1.469522
1.404311
1.335532
1.278432
1.21095
1.161312
1.135682
1.123353
1.154174
1.20219
1.240149
1.314119
1.395876
1.469846
1.475037
1.455571
1.419235
1.380628
1.341696
1.283947
1.231065
1.17656
1.134059
1.140548
1.159041
1.216141
1.27908
1.336505
1.395227
1.47082
1.525649
1.498721
1.456545
1.401716
1.345913
1.311848
1.253775
1.21679
1.164232
1.150281
1.148983
1.184022
1.228794
1.271943
1.331963
1.374788
1.437403
1.486717
1.457518
1.419884
1.363757
1.303088
1.255072
1.199595
1.138277
1.094803
1.086368
1.104536
1.159041
1.222629
1.286542
1.373166
1.457842
1.545114
1.559714
1.535706
1.499045
1.452976
1.408204
1.353051
1.310226
1.269023
1.229118
1.234309
1.247935
1.301142
1.354349
1.418586
1.490934
1.574313
1.637902
1.62168
1.601566
1.561985
1.520458
1.495801
1.44227
1.396525
1.328394
1.306333
1.321257
1.374788
1.449083
1.517213
1.595726
1.672941
1.749182
1.809202
1.779354
1.729716
1.690784
1.665479
1.65899
1.637578
1.59605
1.562958
1.559389
1.55063
1.59313
1.63628
1.687864
1.761186
1.825099
1.888688
1.882848
1.860138
1.815691
1.754373
1.685918
1.606756
1.542843
1.483148
1.423453
1.410475
1.419235
1.463358
1.505209
1.549332
1.608379
1.674238
1.737503
1.713819
1.687864
1.626547
1.572367
1.522404
1.457518
1.403987
1.336505
1.305684
1.301791
1.336505
1.387116
1.446487
1.514942
1.568798
1.635955
1.683647
1.654124
1.610974
1.545439
1.479255
1.414044
1.351753
1.282
1.22782
1.218736
1.228469
1.280378
1.333261
1.387441
1.469846
1.556145
1.646337
1.651528
1.620383
1.566851
1.511374
1.458816
1.387441
1.31931
1.244042
1.167151
1.137953
1.13114
1.17656
1.24242
1.307955
1.390036
1.486717
1.570745
1.559065
1.545114
1.491908
1.430266
1.378681
1.317688
1.260588
1.193106
1.166827
1.152876
1.189213
1.234958
1.286867
1.358566
1.411449
1.482175
1.535057
1.523378
1.499045
1.446812
1.377708
1.314443
1.24534
1.168449
1.09967
1.076635
1.06236
1.098048
1.152552
1.215492
1.299195
1.380303
1.46498
1.4679
1.44227
1.395551
1.344616
1.298871
1.235607
1.186293
1.130491
1.075986
1.086044
1.123678
1.181426
1.239824
1.306008
1.369272
1.44746
1.508778
1.485095
1.471793
1.430266
1.386143
1.3391
1.268374
1.211599
1.154823
1.121731
1.123353
1.156121
1.211599
1.267076
1.344616
1.412097
1.479904
1.521106
1.49061
1.460113
1.40788
1.342993
1.278107
1.223603
1.160338
1.112323
1.118811
1.139899
1.213545
1.286867
1.341047
1.405609
1.476659
1.548683
1.531813
1.485095
1.414368
1.336505
1.269023
1.184995
1.13925
1.09675
1.061387
1.063333
1.086692
1.146712
1.220034
1.294329
1.36765
1.458491
1.535381
1.51624
1.498072
1.451354
1.40496
1.358242
1.303737
1.237553
1.178507
1.118811
1.088639
1.106483
1.144441
1.1824
1.258966
1.333909
1.419884
1.468549
1.436754
1.405284
1.35078
1.300493
1.239824
1.184671
1.131788
1.090586
1.083124
1.085395
1.141521
1.19927
1.271294
1.354997
1.441296
1.503912
1.481201
1.430914
1.366353
1.295951
1.243069
1.169098
1.114269
1.050356
0.995852
0.99131
1.022779
1.079879
1.133086
1.193755
1.259939
1.336829
1.409178
1.395227
1.38517
1.345264
1.30763
1.268699
1.215816
1.157094
1.107132
1.075986
1.073066
1.105185
1.158716
1.195053
1.258641
1.308604
1.37641
1.4108
1.381925
1.348184
1.289462
1.221332
1.165529
1.110052
1.056196
1.008829
1.008829
1.014344
1.070471
1.136655
1.216465
1.305684
1.409502
1.483148
1.479904
1.446487
1.391334
1.334883
1.282649
1.197324
1.129842
1.07112
1.019211
1.01694
1.046463
1.09967
1.14509
1.190186
1.232038
1.29952
1.354997
1.324501
1.296275
1.238202
1.200568
1.159365
1.10778
1.041921
0.989687
0.959515
0.969248
1.020184
1.091234
1.15677
1.240797
1.314768
1.400093
1.452651
1.431888
1.391658
1.306008
1.214519
1.137953
1.085395
1.032188
0.989363
0.992607
0.997474
1.041921
1.100643
1.161961
1.249233
1.351429
1.412422
1.40496
1.369597
1.31055
1.248908
1.18824
1.102914
1.047112
0.983848
0.933561
0.936481
0.961462
1.029592
1.10259
1.183698
1.255721
1.331963
1.400418
1.38517
1.3537
1.297573
1.228469
1.162609
1.08215
1.001042
0.951404
0.929668
0.947511
0.993581
1.060413
1.117189
1.19927
1.262859
1.338776
1.371219
1.335856
1.291084
1.223927
1.170071
1.115891
1.081502
1.037379
0.992607
1.001367
1.016291
1.063333
1.11946
1.17948
1.269347
1.370895
1.434483
1.423453
1.390685
1.32515
1.24534
1.180778
1.091234
1.025375
0.97379
0.935507
0.951729
0.981901
1.044516
1.101941
1.165529
1.231065
1.326772
1.411124
1.416639
1.40788
1.362784
1.306982
1.243717
1.160338
1.067227
0.99942
0.961137
0.963733
0.995852
1.055547
1.090586
1.165854
1.225549
1.303088
1.339749
1.309901
1.27097
1.219061
1.15969
1.095452
1.048085
1.000394
0.95984
0.966004
0.980603
1.026997
1.086044
1.143468
1.222305
1.311524
1.374788
1.367001
1.330016
1.272267
1.210625
1.166827
1.098696
1.057169
1.004287
0.963084
0.966653
0.990985
1.04549
1.100643
1.160663
1.211923
1.288813
1.350455
1.331314
1.306657
1.257668
1.202839
1.154823
1.095128
1.030566
0.9965
0.989039
1.004936
1.057494
1.124651
1.177209
1.254099
1.32515
1.409502
1.448109
1.409178
1.361486
1.292382
1.219709
1.136979
1.064307
0.989039
0.941996
0.953027
0.980279
1.051654
1.133411
1.200244
1.257668
1.320283
1.341371
1.303413
1.244042
1.186942
1.150605
1.12822
1.066578
1.020184
0.954324
0.908255
0.911175
0.924477
0.963084
1.003314
1.057494
1.11362
1.185969
1.249233
1.237878
1.22198
1.173316
1.126922
1.084746
1.031215
0.973466
0.93129
0.920583
0.934858
0.986767
1.056845
1.1107
1.183698
1.242744
1.311848
1.333909
1.297573
1.248259
1.184671
1.107132
1.03673
0.983199
0.922206
0.874514
0.878732
0.892358
0.949782
1.01402
1.077608
1.158716
1.257992
1.342345
1.335856
1.312821
1.271618
1.212247
1.169747
1.110052
1.076959
1.028619
0.990985
0.996825
1.032188
1.073066
1.123029
1.147037
1.151254
1.190835
1.241446
1.226198
1.203488
1.142495
1.079879
1.033161
0.978008
0.922206
0.887491
0.884896
0.900469
0.94816
1.011424
1.072093
1.160663
1.242744
1.329043
1.359864
1.334234
1.289462
1.2249
1.162609
1.098372
1.042894
0.983523
0.926748
0.914744
0.907606
0.935183
0.990661
1.047436
1.128869
1.2249
1.29076
1.267076
1.228794
1.180778
1.133086
1.092532
1.036406
1.004936
0.962435
0.941996
0.944916
0.97963
1.031215
1.076311
1.125949
1.169423
1.226847
1.271618
1.237229
1.191159
1.127571
1.069822
1.02797
0.973141
0.909877
0.870945
0.868674
0.884572
0.929992
0.99131
1.042894
1.118162
1.178831
1.249882
1.283622
1.26805
1.234309
1.17948
1.112971
1.045165
0.989039
0.93421
0.878083
0.883598
0.902091
0.954324
1.017264
1.066578
1.143144
1.246313
1.327096
1.310875
1.27389
1.207057
1.123029
1.04549
0.977359
0.938103
0.889438
0.869972
0.888465
0.942645
0.99942
1.036406
1.070795
1.109078
1.164556
1.206083
1.170396
1.133735
1.073066
1.01694
0.976061
0.929992
0.874514
0.842071
0.838178
0.849533
0.889438
0.950107
1.000069
1.08215
1.146712
1.216141
1.227496
1.204137
1.163258
1.118811
1.066578
1.00234
0.96276
0.907606
0.856346
0.86251
0.876461
0.929343
0.988065
1.04257
1.105834
1.181102
1.244042
1.23074
1.199595
1.144117
1.087666
1.035108
0.970221
0.916041
0.85667
0.829743
0.821307
0.853426
0.902091
0.950756
1.015642
1.076311
1.150281
1.219385
1.203488
1.190186
1.158392
1.136006
1.110052
1.079879
1.024077
0.97087
0.91961
0.870945
0.876461
0.920259
0.965679
1.031215
1.08799
1.142495
1.13633
1.091883
1.038352
0.994878
0.950431
0.902415
0.857968
0.812223
0.758368
0.761288
0.75415
0.783024
0.826823
0.878732
0.94524
1.027321
1.087666
1.072093
1.044841
0.981252
0.919286
0.84272
0.761612
0.690886
0.620484
0.578957
0.562411
0.596476
0.638328
0.681153
0.736955
0.782376
0.82812
0.87127
0.828769
0.795353
0.734035
0.674664
0.60264
0.528021
0.461188
0.421283
0.417714
0.418363
0.450806
0.498822
0.53159
0.58869
0.651305
0.718463
0.735982
0.70289
0.650656
0.593881
0.543594
0.493631
0.442371
0.395329
0.350557
0.352828
0.363534
0.40863
0.470921
0.553327
0.638977
0.734035
0.795028
0.774914
0.761288
0.714894
0.647088
0.57409
0.492334
0.425501
0.362561
0.322656
0.315519
0.355099
0.409928
0.456646
0.524777
0.598423
0.680828
0.756745
0.740848
0.724951
0.686344
0.650007
0.611076
0.561762
0.510502
0.470597
0.46573
0.462162
0.492983
0.541323
0.601667
0.683748
0.771345
0.861537
0.897224
0.891709
0.866079
0.817739
0.760639
0.692832
0.638004
0.571819
0.504013
0.490063
0.498498
0.556247
0.623404
0.69121
0.782051
0.891385
0.969897
0.947511
0.917988
0.861537
0.797624
0.737604
0.667527
0.607183
0.551705
0.528346
0.533212
0.573766
0.625026
0.679855
0.749608
0.821632
0.901766
0.971519
0.96276
0.942645
0.898522
0.844991
0.787891
0.724951
0.666229
0.629244
0.622755
0.634759
0.690561
0.752852
0.825201
0.916366
0.98839
1.059116
1.064956
1.031539
0.984821
0.930316
0.881003
0.827147
0.793731
0.758368
0.70581
0.698023
0.721382
0.786593
0.843369
0.918312
1.000069
1.087341
1.126273
1.075337
1.035108
0.97379
0.913122
0.863483
0.796002
0.738253
0.684073
0.661687
0.673691
0.720409
0.777834
0.839476
0.921232
0.989039
1.075337
1.143144
1.130491
1.115891
1.075662
1.033486
0.98255
0.928045
0.857968
0.809952
0.809628
0.821307
0.872568
0.929019
0.97379
1.037054
1.114918
1.192133
1.219709
1.201541
1.165854
1.118487
1.058142
0.991958
0.937778
0.891385
0.840124
0.846937
0.85959
0.917015
0.970221
1.036081
1.111998
1.20803
1.283947
1.266103
1.249233
1.20803
1.156445
1.109727
1.055547
1.007207
0.958542
0.935183
0.950756
0.996825
1.052627
1.091234
1.149308
1.203488
1.274538
1.352726
1.342993
1.321905
1.258966
1.190186
1.118162
1.045814
0.966653
0.906957
0.897873
0.890736
0.935507
1.000718
1.071444
1.160014
1.241446
1.333585
1.350131
1.330016
1.283947
1.221007
1.15969
1.081826
1.03381
0.976061
0.919286
0.909228
0.920908
