1.448109
1.486068
1.493205
1.420533
1.261886
1.093181
0.949133
0.811574
0.717165
0.700943
0.784647
0.966004
1.23366
1.548034
1.802713
1.924051
1.93865
1.867924
1.689487
1.384196
1.024726
0.703863
0.496876
0.446913
0.557869
0.754799
0.965355
1.145415
1.315741
1.471793
1.593455
1.66775
1.693704
1.651204
1.557118
1.435132
1.282325
1.126922
1.000394
0.893331
0.792757
0.745715
0.768101
0.822281
0.923179
1.059765
1.21095
1.359215
1.481201
1.549981
1.547061
1.502938
1.395876
1.218412
1.026024
0.853102
0.708081
0.586419
0.510502
0.497849
0.528995
0.606534
0.755123
0.978008
1.175587
1.295302
1.37349
1.477308
1.552901
1.537004
1.451678
1.321581
1.143468
0.914744
0.680504
0.486818
0.344069
0.31487
0.368401
0.529643
0.788864
1.117838
1.423777
1.685269
1.883821
1.932486
1.837752
1.696949
1.535706
1.367326
1.213545
1.111674
1.047112
0.98255
0.924477
0.861537
0.807357
0.771994
0.804761
0.842395
0.854075
0.883923
0.953675
1.070146
1.170071
1.267401
1.36473
1.392632
1.383872
1.375112
1.381925
1.440323
1.517213
1.569447
1.577558
1.527595
1.411124
1.267725
1.182724
1.133411
1.097074
1.099021
1.109403
1.049383
0.974115
0.942969
0.929992
0.961786
1.057818
1.192782
1.333585
1.45038
1.530515
1.552576
1.529217
1.439999
1.25637
1.029917
0.80833
0.624377
0.50012
0.478708
0.529319
0.624702
0.758692
0.892358
1.028295
1.173965
1.334883
1.500018
1.621031
1.671318
1.597024
1.39912
1.153201
0.919286
0.684073
0.407008
0.180555
0.073493
0.032614
0.20067
0.638328
1.144441
1.532786
1.745613
1.824126
1.826072
1.794927
1.664505
1.456869
1.241771
1.069173
0.938427
0.852777
0.827472
0.79146
0.706783
0.618213
0.555598
0.556571
0.675638
0.881976
1.152876
1.438052
1.636929
1.679429
1.576584
1.395227
1.21095
1.06528
0.985145
0.96276
0.995203
1.079879
1.180778
1.302764
1.42475
1.513969
1.556794
1.540248
1.471468
1.33618
1.143144
0.944267
0.746364
0.546189
0.293782
0.116966
0.047214
0.02061
0.010228
0.237331
0.869323
1.424426
1.833859
2.064854
2.137203
2.062583
1.848134
1.551603
1.234633
0.934858
0.665256
0.463784
0.364508
0.365805
0.486494
0.735333
1.04841
1.337478
1.588913
1.773839
1.838401
1.824126
1.730041
1.529542
1.292058
1.064956
0.865754
0.716192
0.627297
0.589663
0.601667
0.690237
0.838178
1.03089
1.234958
1.407231
1.532786
1.576909
1.54187
1.422479
1.21679
0.966328
0.711974
0.480654
0.278209
0.17796
0.204563
0.255174
0.316167
0.489414
0.735657
0.949458
1.178182
1.418262
1.623303
1.771892
1.790709
1.678456
1.468224
1.238851
1.046463
0.897873
0.803464
0.723653
0.684397
0.726249
0.842395
0.986767
1.10778
1.20803
1.240797
1.225225
1.211923
1.190511
1.198946
1.208354
1.172342
1.083773
0.997149
0.955622
0.950756
1.001042
1.089612
1.205759
1.340398
1.4679
1.557767
1.591833
1.584371
1.517213
1.384845
1.229118
1.066253
0.909228
0.784647
0.727547
0.739551
0.802815
0.916041
1.049707
1.190186
1.31639
1.42183
1.488988
1.508129
1.475037
1.366677
1.201866
1.005585
0.750257
0.442696
0.182177
0.072519
0.030992
0.014122
0.042996
0.492658
1.006233
1.412746
1.689811
1.865653
1.952601
1.910425
1.751453
1.555821
1.358566
1.178182
1.027646
0.930316
0.88814
0.863159
0.855048
0.849208
0.852777
0.883598
0.984821
1.12238
1.222305
1.292707
1.295626
1.215167
1.108429
0.99131
0.875487
0.78854
0.74831
0.715867
0.674989
0.668176
0.694455
0.727547
0.693481
0.649034
0.618538
0.629893
0.719436
0.946214
1.251828
1.521431
1.588264
1.481526
1.351753
1.286218
1.274214
1.320932
1.405933
1.501316
1.589562
1.660612
1.70733
1.702139
1.651528
1.55063
1.383547
1.197324
1.019211
0.872892
0.759016
0.706134
0.73436
0.798922
0.89982
1.030566
1.152228
1.255072
1.338127
1.398147
1.414693
1.398471
1.335532
1.206083
1.052952
0.911499
0.793731
0.696077
0.596476
0.461513
0.333362
0.295728
0.340824
0.513097
0.839476
1.23074
1.580153
1.785843
1.851703
1.790709
1.626871
1.411124
1.17656
0.981577
0.811899
0.61432
0.371321
0.161414
0.065382
0.075439
0.37489
0.816441
1.306333
1.723228
1.997048
2.106057
2.044091
1.882524
1.67586
1.466926
1.272592
1.131788
1.064956
1.028295
0.986767
0.895602
0.761612
0.601667
0.509204
0.565006
0.785944
1.117838
1.41372
1.648933
1.738476
1.647959
1.477957
1.317039
1.224576
1.192782
1.202515
1.272592
1.369597
1.472766
1.562309
1.61876
1.632062
1.599619
1.52792
1.409178
1.257343
1.098372
0.954649
0.837853
0.775238
0.783998
0.83688
0.927397
1.067551
1.220034
1.357917
1.473091
1.559389
1.581775
1.545114
1.439674
1.241771
1.020508
0.807032
0.61432
0.461513
0.367752
0.354775
0.410253
0.499796
0.58285
0.643194
0.732413
0.886518
1.126273
1.460113
1.760213
1.89615
1.814393
1.609028
1.399445
1.199595
1.018886
0.91085
0.868026
0.873865
0.914744
0.935507
0.924477
0.944591
1.000718
1.123678
1.287191
1.479904
1.635955
1.643742
1.526946
1.347536
1.165854
1.003638
0.897549
0.832014
0.786918
0.798597
0.855373
0.958218
1.138277
1.344616
1.472766
1.55647
1.568149
1.471793
1.365704
1.267076
1.201217
1.151254
1.101292
1.077933
1.076311
1.11946
1.2249
1.389712
1.54187
1.649581
1.709926
1.689162
1.602214
1.474388
1.294329
1.094154
0.896251
0.755448
0.676611
0.658443
0.70289
0.81125
0.984496
1.1678
1.337803
1.471144
1.54771
1.561336
1.51916
1.451678
1.34786
1.208679
1.061711
0.926748
0.809303
0.708405
0.622431
0.509529
0.368401
0.302541
0.375538
0.542945
0.813197
1.228469
1.609028
1.843916
1.887066
1.759239
1.563283
1.365379
1.182075
0.978657
0.738253
0.550083
0.458268
0.449184
0.443345
0.490712
0.607507
0.743444
0.975737
1.330016
1.705384
1.974338
2.016514
1.892905
1.710899
1.500992
1.292707
1.132437
1.059765
1.058142
1.139575
1.266428
1.38517
1.473415
1.528568
1.538626
1.52792
1.523053
1.484121
1.401391
1.288165
1.1678
1.06528
0.984172
0.954324
0.972168
1.035432
1.134708
1.246637
1.363108
1.463682
1.530515
1.539924
1.51624
1.462709
1.348184
1.195053
1.043543
0.912473
0.813521
0.761288
0.770372
0.826498
0.926423
1.053925
1.157094
1.177858
1.112971
1.032837
0.942969
0.872892
0.886518
0.962111
0.997474
0.959191
0.867052
0.750581
0.659416
0.624377
0.68018
0.850182
1.072093
1.298546
1.461735
1.54187
1.573989
1.566851
1.532137
1.48769
1.401067
1.305359
1.186942
1.061062
0.953351
0.908904
0.908579
0.943294
1.022779
1.127571
1.263508
1.402364
1.511049
1.571718
1.592806
1.554199
1.410151
1.224251
1.04841
0.899171
0.811899
0.792433
0.830391
0.882949
0.935507
0.952053
0.866728
0.657145
0.421608
0.305137
0.367752
0.66558
1.120109
1.518511
1.725174
1.718037
1.596699
1.478282
1.412422
1.394903
1.411773
1.487366
1.580802
1.663208
1.721281
1.757293
1.755671
1.716739
1.670021
1.594428
1.464331
1.29952
1.146388
1.012073
0.908255
0.871594
0.890736
0.952702
1.072742
1.214843
1.358242
1.491908
1.59605
1.631738
1.583397
1.479904
1.318012
1.12822
0.938103
0.766154
0.633461
0.587717
0.631515
0.730467
0.910202
1.141197
1.361162
1.533759
1.654772
1.699544
1.6392
1.51916
1.372517
1.19343
1.018562
0.818712
0.594205
0.397275
0.23214
0.139028
0.261338
0.577984
1.020184
1.436105
1.746911
2.011647
2.198845
2.22999
2.145962
1.968174
1.718685
1.439025
1.123678
0.762261
0.419985
0.213971
0.109829
0.113722
0.375863
0.763234
1.166503
1.520133
1.859164
2.126496
2.258216
2.252376
2.123577
1.930539
1.707979
1.482175
1.279405
1.132113
1.065604
1.045814
1.079879
1.146388
1.145739
1.076959
0.997474
0.977683
1.016615
1.170071
1.444541
1.673914
1.716414
1.630764
1.488014
1.332287
1.223927
1.186293
1.203488
1.278756
1.387441
1.505209
1.607081
1.673265
1.702139
1.675212
1.612272
1.510725
1.369597
1.204786
1.039001
0.899171
0.790486
0.73436
0.73728
0.797948
0.900469
0.999745
1.088315
1.138926
1.119136
1.082799
1.029917
0.974115
0.954973
0.965031
0.921232
0.817414
0.700943
0.619511
0.621458
0.753501
1.000394
1.283947
1.539924
1.724201
1.820557
1.843592
1.792656
1.673914
1.490285
1.256695
1.024077
0.85148
0.794055
0.817414
0.928045
1.057169
1.170071
1.276809
1.347536
1.426697
1.552901
1.699868
1.787141
1.811149
1.781301
1.671643
1.492232
1.297897
1.134059
1.021157
0.949458
0.931614
0.958542
1.029917
1.154823
1.282325
1.371543
1.427995
1.440972
1.419235
1.395227
1.368299
1.292382
1.180778
1.053925
0.935183
0.824227
0.708081
0.625675
0.556571
0.541647
0.619511
0.753826
0.863808
0.946862
1.001367
1.030241
1.122704
1.265779
1.354673
1.355322
1.23366
1.011749
0.787566
0.661687
0.58577
0.545541
0.587068
0.744093
0.999096
1.278107
1.543168
1.731014
1.811149
1.820233
1.775785
1.683971
1.567825
1.439999
1.302764
1.174289
1.111349
1.09383
1.113296
1.200568
1.318661
1.396525
1.392956
1.342993
1.252153
1.157094
1.117189
1.111998
1.141521
1.141521
1.092208
1.033161
0.963084
0.940374
0.951729
0.993905
1.079879
1.181102
1.28492
1.377708
1.451354
1.471793
1.450705
1.393929
1.285893
1.165205
1.052303
0.950107
0.866079
0.82293
0.828445
0.870621
0.964057
1.095777
1.23366
1.355971
1.451029
1.500992
1.484446
1.420208
1.311524
1.151903
0.966004
0.768425
0.576686
0.352828
0.158494
0.064408
0.027748
0.012824
0.158494
0.606858
1.078906
1.473739
1.725174
1.817313
1.754697
1.571393
1.354349
1.136979
0.918637
0.713921
0.52575
0.413172
0.386245
0.460539
0.646114
0.855697
1.069498
1.264481
1.397498
1.439025
1.443567
1.418262
1.252801
0.936156
0.60556
0.359966
0.237979
0.323629
0.597125
0.96795
1.334558
1.556794
1.684945
1.766053
1.814068
1.819584
1.763133
1.662883
1.523053
1.331638
1.103238
0.854399
0.63119
0.463784
0.385271
0.399222
0.503364
0.677909
0.878407
1.084097
1.330665
1.535706
1.655421
1.690784
1.653799
1.520133
1.320283
1.11362
0.933885
0.804761
0.735657
0.733062
0.779456
0.856346
0.970546
1.081826
1.167151
1.218736
1.249233
1.230416
1.171694
1.127571
1.05944
0.954
0.854724
0.796975
0.749608
0.727547
0.743768
0.751555
0.768749
0.808006
0.870297
0.965679
1.104212
1.229118
1.302115
1.326447
1.259615
1.109403
0.935183
0.826174
0.810926
0.797624
0.787891
0.812548
0.852453
0.906957
0.900144
0.779131
0.610102
0.483574
0.49136
0.667202
0.965679
1.306982
1.545114
1.58502
1.497423
1.358566
1.223927
1.138602
1.095777
1.101616
1.172667
1.260263
1.312821
1.343318
1.360837
1.333585
1.287516
1.25345
1.195701
1.107456
1.015317
0.930641
0.877758
0.86251
0.896575
0.958218
1.058467
1.183373
1.314443
1.431239
1.514942
1.549981
1.519484
1.437079
1.295302
1.077284
0.836231
0.634759
0.500445
0.434585
0.495902
0.629893
0.751879
0.880678
1.005585
1.129842
1.245988
1.354349
1.428968
1.446487
1.414368
1.32807
1.204137
1.071444
0.922854
0.765181
0.625351
0.541323
0.494929
0.493956
0.616915
0.838827
1.091883
1.349807
1.5821
1.709601
1.706033
1.573664
1.334558
1.074688
0.829418
0.613022
0.461513
0.413497
0.483899
0.647736
0.8969
1.185969
1.439025
1.609028
1.706681
1.705708
1.543492
1.251179
0.887491
0.53159
0.291186
0.234411
0.353477
0.576362
0.79146
0.954649
1.066902
1.195053
1.336505
1.480553
1.608703
1.71025
1.765728
1.755346
1.701815
1.582424
1.405933
1.219385
1.051654
0.925774
0.840773
0.818387
0.843693
0.917015
1.048085
1.201541
1.341047
1.449407
1.5104
1.500667
1.426372
1.316066
1.156445
0.973141
0.792433
0.645141
0.537754
0.483574
0.496551
0.547812
0.633786
0.747337
0.854399
0.941996
0.965031
0.89982
0.802166
0.696077
0.572468
0.512448
0.569873
0.654874
0.738902
0.781727
0.797948
0.813197
0.762585
0.678557
0.609129
0.59745
0.670447
0.880354
1.106807
1.261237
1.324825
1.306008
1.229118
1.002989
0.65974
0.323305
0.127024
0.050782
0.022557
0.096203
0.508555
0.940374
1.306008
1.60189
1.783572
1.840996
1.825099
1.759888
1.624925
1.452651
1.273565
1.098696
0.932587
0.804761
0.757719
0.777509
0.865106
0.98547
1.106807
1.22782
1.339749
1.427021
1.460113
1.451029
1.401067
1.283298
1.138277
0.99131
0.860564
0.771669
0.754474
0.790811
0.860239
0.981901
1.124002
1.264157
1.38517
1.471793
1.509103
1.47082
1.378681
1.237878
1.073066
0.914744
0.784647
0.698348
0.644168
0.644492
0.685046
0.759016
0.863808
0.980928
1.093181
1.113296
0.994878
0.790486
0.610102
0.502716
0.565331
0.77102
1.021806
1.23366
1.289787
1.246637
1.238202
1.256046
1.285569
1.316714
1.300168
1.204786
1.095128
1.032188
1.034783
1.148659
1.318337
1.462709
1.473091
1.40204
1.306657
1.246962
1.288813
1.386792
1.426048
1.435781
1.454598
1.5104
1.612921
1.753724
1.903612
2.018136
2.015216
1.901989
1.731014
1.539275
1.363108
1.21387
1.100967
1.055871
1.061062
1.118162
1.238202
1.387765
1.529217
1.650879
1.742045
1.767675
1.730365
1.646986
1.500667
1.319959
1.142495
0.996825
0.890411
0.839151
0.840124
0.894304
0.999745
1.161312
1.335532
1.484446
1.604161
1.687864
1.702788
1.656719
1.564905
1.401391
1.216465
1.03381
0.856346
0.651305
0.443669
0.300595
0.261663
0.341149
0.578633
0.978332
1.409178
1.792332
2.036304
2.108653
2.063557
1.897447
1.675212
1.452976
1.24534
1.08799
0.98255
0.907282
0.809952
0.699321
0.675962
0.760639
0.97087
1.341047
1.749506
2.011972
2.118386
2.105733
1.987315
1.814393
1.619409
1.431239
1.269672
1.120758
1.004611
0.936156
0.914095
0.921232
0.969897
1.112971
1.332612
1.568798
1.725823
1.806931
1.818286
1.71609
1.540897
1.35662
1.209976
1.086368
1.015642
1.006558
1.04549
1.141521
1.27389
1.419884
1.544466
1.643417
1.697597
1.688513
1.630764
1.51332
1.338451
1.14801
0.976061
0.849533
0.777834
0.77978
0.828445
0.906633
1.029268
1.160014
1.285245
1.39036
1.461087
1.453625
1.356944
1.200892
0.99131
0.738253
0.514071
0.40863
0.420634
0.490063
0.623729
0.787566
0.982225
1.200892
1.39036
1.546088
1.643742
1.662234
1.569122
1.373814
1.096425
0.76291
0.487467
0.310976
0.22922
0.261338
0.412199
0.623404
0.862186
1.091234
1.321581
1.525973
1.678456
1.766053
1.791358
1.764755
1.688838
1.523378
1.281027
1.029592
0.806708
0.642546
0.580255
0.612373
0.698672
0.870621
1.122055
1.394903
1.655421
1.878306
2.03014
2.061286
1.983422
1.852351
1.676509
1.47893
1.298546
1.145739
1.020508
0.938427
0.880354
0.835258
0.848884
0.954
1.158067
1.418262
1.659639
1.864355
1.968498
1.95617
1.860138
1.688838
1.498072
1.325474
1.186293
1.086368
1.055871
1.089937
1.163583
1.284271
1.427346
1.562309
1.663208
1.73588
1.766053
1.729067
1.650555
1.550954
1.421182
1.282649
1.155148
1.038677
0.955622
0.942645
0.978657
1.055547
1.18824
1.34202
1.482499
1.594104
1.655097
1.6246
1.500992
1.324501
1.088639
0.809952
0.521857
0.314545
0.221109
0.281129
0.456646
0.720734
1.040623
1.354024
1.622654
1.840023
1.995426
2.074587
2.068748
2.011972
1.905558
1.728418
1.529866
1.307955
1.040623
0.792109
0.623404
0.555598
0.599072
0.766803
1.054898
1.393929
1.66775
1.866626
1.974662
1.976609
1.914642
1.79006
1.623951
1.439025
1.271618
1.130815
1.01986
0.985145
1.021482
1.109403
1.246313
1.398471
1.532137
1.606756
1.616814
1.575611
1.488988
1.391658
1.263183
1.129193
1.00818
0.930965
0.887167
0.858941
0.871919
0.907931
0.982874
1.100643
1.224576
1.327096
1.4108
1.464007
1.463033
1.452651
1.431888
1.339749
1.198621
1.052303
0.90566
0.795353
0.739875
0.719436
0.738253
0.80541
0.893007
0.962111
1.031539
1.137304
1.255072
1.322879
1.365055
1.343967
1.20511
1.020184
0.809952
0.59161
0.449184
0.488116
0.673691
0.908904
1.140224
1.348509
1.527271
1.658666
1.700842
1.606432
1.380303
1.09091
0.763559
0.492983
0.389813
0.464108
0.613022
0.792757
0.95108
1.077284
1.230416
1.415991
1.586966
1.718685
1.806282
1.845214
1.82445
1.751453
1.632387
1.453625
1.246313
1.045165
0.890736
0.792757
0.756745
0.783349
0.853102
0.956595
1.072742
1.172667
1.257668
1.303088
1.298546
1.250855
1.182075
1.080853
0.957893
0.838178
0.739875
0.635084
0.521208
0.428745
0.323629
0.207807
0.165956
0.224678
0.356072
0.590312
0.889762
1.219709
1.495152
1.659639
1.682349
1.610001
1.474064
1.308604
1.161636
1.050356
0.987741
0.94816
0.880678
0.819361
0.807681
0.846937
0.938103
1.112647
1.372841
1.633684
1.75048
1.672616
1.501641
1.296924
1.101941
0.943943
0.863159
0.863159
0.914095
1.021482
1.167151
1.32223
1.452327
1.541221
1.594753
1.589562
1.515591
1.37057
1.169098
0.936481
0.71684
0.552678
0.443345
0.451131
0.544567
0.670447
0.858941
1.041596
1.196675
1.300168
1.343967
1.337154
1.305359
1.263832
1.180778
1.066578
0.9394
0.812548
0.702565
0.619835
0.562411
0.511475
0.517964
0.589663
0.718787
0.926748
1.155796
1.327096
1.404635
1.369921
1.265779
1.071444
0.821632
0.621458
0.512448
0.4972
0.587392
0.768425
0.995852
1.155472
1.190186
1.133411
1.060089
0.968275
0.850506
0.753501
0.705161
0.679531
0.643519
0.630866
0.71976
0.841098
0.917664
0.988714
1.019211
1.035108
1.087666
1.165529
1.281351
1.331963
1.310875
1.254748
1.197648
1.178831
1.178182
1.148983
1.126273
1.066902
0.944591
0.843369
0.813521
0.81417
0.876785
1.033161
1.235931
1.412422
1.506507
1.506831
1.455247
1.429292
1.425399
1.370895
1.258317
1.104536
0.947187
0.823903
0.764532
0.763559
0.796651
0.881976
1.01694
1.173965
1.325474
1.445514
1.515267
1.52208
1.490285
1.409502
1.265779
1.084746
0.904362
0.744093
0.637679
0.612373
0.64871
0.714569
0.839151
0.9965
1.154499
1.27389
1.324825
1.324825
1.268699
1.163258
0.963733
0.694779
0.453078
0.256472
0.131241
0.179906
0.367103
0.593881
0.83104
1.104212
1.352402
1.524675
1.610974
1.566527
1.368624
1.072093
0.76291
0.526399
0.447562
0.576037
0.80541
0.98547
1.022131
0.970546
0.925125
0.935183
0.979954
1.061062
1.183373
1.31639
1.448758
1.543168
1.574313
1.554199
1.472117
1.369597
1.246962
1.092532
0.89982
0.688939
0.474166
0.323629
0.356072
0.586094
0.950431
1.356944
1.744316
2.001266
2.056744
1.988613
1.830614
1.615841
1.388414
1.184346
1.009478
0.86251
0.733062
0.565331
0.387218
0.284049
0.338229
0.581228
0.961137
1.388414
1.668399
1.800118
1.834508
1.767026
1.629142
1.460762
1.306982
1.184346
1.112647
1.105509
1.137304
1.212896
1.325799
1.412097
1.441621
1.405609
1.297897
1.140873
0.999745
0.890411
0.811574
0.801193
0.837205
0.882301
0.913446
0.969573
1.047112
1.140548
1.272267
1.384845
1.452327
1.486717
1.479579
1.404311
1.204461
0.88522
0.515044
0.219487
0.088741
0.039427
0.238628
0.569873
0.888465
1.165854
1.420208
1.634982
1.788114
1.887714
1.962334
2.017812
2.027869
1.987315
1.866626
1.644066
1.356295
1.043219
0.726898
0.415768
0.207807
0.193208
0.379107
0.723329
1.156445
1.574638
1.857867
2.008079
2.065179
2.045713
1.977582
1.853
1.647959
1.406582
1.164232
0.955946
0.807032
0.737604
0.75707
0.810277
0.921881
1.105185
1.328394
1.530191
1.682674
1.752751
1.743342
1.685269
1.581126
1.426372
1.255072
1.089288
0.937454
0.81709
0.746364
0.712947
0.744742
0.863159
1.01402
1.157419
1.269347
1.346562
1.361486
1.291084
1.172991
1.017588
0.852128
0.730791
0.685695
0.711325
0.790486
0.912473
1.031215
1.155796
1.274538
1.367975
1.455247
1.529542
1.57918
1.546412
1.417288
1.241122
1.029917
0.844342
0.760639
0.800868
0.904362
1.032837
1.162609
1.275836
1.400093
1.514618
1.63044
1.732636
1.792007
1.786816
1.691109
1.534408
1.345264
1.118487
0.87419
0.629568
0.377485
0.163685
0.067653
0.101394
0.385271
0.847911
1.392632
1.870844
2.134932
2.221231
2.188139
2.063881
1.888363
1.663532
1.404635
1.143792
0.906633
0.722031
0.62308
0.64579
0.749608
0.935507
1.188888
1.436754
1.642444
1.807904
1.911722
1.901341
1.811797
1.666128
1.451354
1.216465
0.960164
0.699321
0.449509
0.248361
0.156547
0.194506
0.383
0.703863
1.136006
1.548683
1.82737
1.954223
1.946761
1.863382
1.745613
1.588588
1.394903
1.198297
1.031863
0.915717
0.870945
0.878732
0.947511
1.060413
1.082799
0.961462
0.833311
0.791135
0.843693
1.050356
1.392632
1.685918
1.792007
1.708304
1.542519
1.36765
1.224251
1.124651
1.029917
0.971195
0.975088
1.028295
1.132113
1.302764
1.490285
1.588264
1.601566
1.537004
1.342669
1.101616
0.88522
0.71684
0.627946
0.689588
0.908904
1.150605
1.345913
1.502938
1.632711
1.721605
1.743991
1.6963
1.595401
1.474388
1.333585
1.182724
1.053925
0.946214
0.863808
0.780105
0.652927
0.524777
0.458593
0.488765
0.637355
0.96795
1.370246
1.695651
1.866626
1.929566
1.883497
1.739449
1.551279
1.365379
1.214194
1.102265
1.028295
1.011749
1.038352
1.089288
1.141521
1.181751
1.244042
1.317688
1.376086
1.389712
1.370895
1.323528
1.221007
1.090586
0.952702
0.823578
0.717165
0.63703
0.608156
0.620484
0.686344
0.823254
1.031863
1.26221
1.448109
1.604161
1.678131
1.675212
1.586317
1.429292
1.242095
1.078257
0.950431
0.826823
0.744742
0.678233
0.606858
0.607831
0.717165
0.859915
1.054249
1.270321
1.412746
1.45622
1.452651
1.428643
1.406907
1.389712
1.350455
1.293031
1.235931
1.197648
1.175262
1.194728
1.257992
1.29952
1.301466
1.262534
1.217438
1.181426
1.206083
1.258317
1.280703
1.250206
1.123029
0.902091
0.643843
0.436207
0.332065
0.348935
0.478383
0.710027
1.00526
1.252477
1.43059
1.575611
1.668074
1.765079
1.846836
1.823477
1.687216
1.49937
1.307955
1.142819
1.049383
1.011749
1.029268
1.119784
1.232038
1.342345
1.43059
1.498072
1.512022
1.478282
1.443567
1.354024
1.215816
1.062684
0.910202
0.762585
0.64579
0.600694
0.619835
0.751555
0.995527
1.231389
1.342345
1.244042
1.034135
0.814494
0.651305
0.598098
0.706783
0.943618
1.159041
1.241771
1.204461
1.156121
1.144441
1.177858
1.253126
1.340398
1.43935
1.514293
1.557767
1.552252
1.472117
1.348833
1.135682
0.837853
0.562735
0.380405
0.348611
0.514071
0.850506
1.156445
1.346238
1.476335
1.5821
1.654124
1.707655
1.748209
1.765728
1.728094
1.615841
1.406258
1.15385
0.924801
0.747013
0.64871
0.630542
0.670447
0.713272
0.744417
0.830716
1.013695
1.25929
1.498396
1.692731
1.794603
1.794603
1.707006
1.540897
1.347211
1.148334
0.95692
0.793731
0.696077
0.678233
0.720085
0.834609
0.997474
1.169098
1.322879
1.434808
1.47893
1.446487
1.365704
1.21679
0.985145
0.664282
0.320385
0.128322
0.052405
0.022881
0.219162
0.753826
1.279729
1.656719
1.901989
2.050904
2.11871
2.111573
2.025922
1.84197
1.548683
1.188888
0.838827
0.555922
0.374565
0.299297
0.31195
0.417714
0.580904
0.81125
1.117513
1.454922
1.726147
1.914642
2.032411
2.054148
1.953574
1.740422
1.486068
1.244691
1.042894
0.8969
0.834285
0.847586
0.900793
1.00818
1.147361
1.292058
1.42475
1.523702
1.578531
1.560687
1.499045
1.386467
1.222954
1.0682
0.950431
0.841422
0.732738
0.65163
0.599396
0.606858
0.724951
0.915717
1.094803
1.184346
1.168449
1.092532
1.013046
1.037379
1.197972
1.370895
1.441296
1.417613
1.331638
1.238202
1.186617
1.153201
1.164556
1.24242
1.353375
1.473091
1.589237
1.69338
1.737827
1.752751
1.696624
1.508778
1.231713
0.945889
0.728844
0.580579
0.506284
0.574415
0.718138
0.889114
1.072417
1.287516
1.524026
1.728418
1.8676
1.909127
1.856245
1.738151
1.537004
1.271294
1.023104
0.826823
0.698997
0.689913
0.77686
0.917015
1.117838
1.321581
1.492557
1.639524
1.756968
1.813095
1.80466
1.748209
1.632062
1.469197
1.282649
1.101941
0.942645
0.811899
0.698023
0.600694
0.578957
0.653576
0.80833
1.073066
1.390685
1.640173
1.755346
1.77027
1.727445
1.603188
1.413395
1.182075
0.934858
0.706783
0.542945
0.461837
0.50304
0.68829
0.93421
1.155796
1.338127
1.483797
1.592806
1.654124
1.651204
1.586966
1.433834
1.187591
0.785295
0.345691
0.135783
0.055324
0.024179
0.021584
0.489414
1.10259
1.619409
1.960387
2.171268
2.248483
2.239399
2.173539
2.030465
1.810175
1.549656
1.280703
1.008504
0.78562
0.689588
0.722031
0.854724
1.052627
1.275187
1.452976
1.586317
1.6963
1.758266
1.752426
1.68754
1.561012
1.392632
1.214194
1.054249
0.934534
0.870621
0.869972
0.908904
1.01402
1.157419
1.307955
1.434808
1.519809
1.54771
1.523053
1.461411
1.352402
1.191484
1.023428
0.877434
0.763559
0.686668
0.675313
0.713921
0.795353
0.937129
1.108429
1.278432
1.425724
1.524026
1.545763
1.494828
1.390685
1.235282
1.032188
0.798273
0.546838
0.275289
0.108856
0.043645
0.019961
0.009904
0.088741
0.460864
0.859915
1.231713
1.554199
1.799145
1.927944
1.934757
1.797847
1.559389
1.234633
0.871594
0.563709
0.369699
0.372294
0.529968
0.781078
1.094479
1.400742
1.635631
1.817313
1.920158
1.917887
1.834508
1.672616
1.39912
1.044192
0.674664
0.377485
0.177311
0.10918
0.286644
0.620809
1.029917
1.392632
1.660288
1.836454
1.94741
1.992182
1.952925
1.853
1.695651
1.496774
1.296275
1.109403
0.941996
0.809303
0.761288
0.768425
0.820334
0.931614
1.067551
1.202515
1.324501
1.413071
1.444541
1.423128
1.361162
1.241446
1.092532
0.943618
0.819036
0.727547
0.685695
0.701917
0.749284
0.829094
0.939076
1.074364
1.197324
1.293355
1.355646
1.346562
1.253126
1.072093
0.829743
0.588041
0.387867
0.270098
0.278209
0.359966
0.427447
0.495254
0.583823
0.684722
0.785295
0.85148
0.944916
1.090261
1.200892
1.318661
1.41891
1.418586
1.358891
1.463358
1.338451
1.019535
0.973141
0.959191
0.96276
1.001367
1.049058
1.085395
1.115242
1.144117
1.147686
1.149957
1.136006
1.067875
1.011749
1.009478
1.175262
1.51916
1.055547
1.069822
1.067551
1.127895
1.241122
1.353051
1.443567
1.509751
1.543168
1.522729
1.468224
1.391658
1.256046
1.112647
0.982874
0.949458
0.780753
0.728844
0.740199
0.769723
0.835582
0.942969
1.091883
1.235607
1.340398
1.399769
1.392307
1.332936
1.218736
1.054574
0.875163
0.69997
0.517639
0.362237
0.237331
0.110802
0.044943
0.019313
0.013797
0.303839
0.834285
1.376734
1.748858
1.943192
1.970445
2.293255
3.409302
3.550106
3.252277
2.564155
0.95692
0.790811
0.725924
0.666229
0.590637
0.523479
0.50888
0.606534
0.873865
1.22782
1.5104
1.641146
2.074912
3.443368
3.826848
3.778183
3.170195
1.671967
1.033161
1.08507
1.198297
1.34202
1.474713
1.574638
1.625898
1.591508
1.472117
1.301791
1.129193
0.986119
0.918961
1.593455
1.893879
1.459789
0.862835
0.929019
1.015966
1.149957
1.300817
1.444865
1.557443
1.630764
1.640173
1.590859
1.488988
1.320932
1.18532
0.757394
0.327198
0.128322
0.05208
0.022881
0.010877
0.332389
0.903064
1.405609
1.749831
1.962658
2.07037
2.080752
2.018136
1.872791
2.639748
3.32203
3.046911
2.345488
1.121082
0.484547
0.488765
0.601667
0.789837
1.021157
1.270645
1.488663
1.651204
1.75632
1.777732
1.737503
1.642768
2.39318
3.16468
3.329167
3.104984
2.009701
0.837205
0.837529
0.888789
0.977683
1.053276
1.053276
1.028295
0.97379
0.821307
0.607507
0.46865
0.385271
0.383
0.503689
1.476659
2.935631
2.778605
2.095027
1.296275
1.425724
1.586317
1.766377
1.925997
2.029491
2.069721
2.031762
1.935082
1.783572
1.966227
2.617362
2.017487
1.106483
0.428096
0.381703
0.441074
0.625026
0.940698
1.275187
1.564905
1.782599
1.900043
1.916264
1.852351
1.72485
1.542519
1.409502
1.875062
1.766053
1.217763
0.431341
0.295079
0.278858
0.41447
0.699321
1.086368
1.440647
1.683322
1.816664
1.839699
1.788763
1.6963
1.552252
2.485967
3.007979
3.149432
3.004735
1.808229
0.936481
0.979954
1.054898
1.169098
1.220358
1.168774
1.084097
0.99942
0.929992
0.937129
1.075662
1.233011
2.503162
3.40184
3.704861
3.396325
1.946437
1.039325
1.026673
1.024402
1.057169
1.135033
1.238526
1.379979
1.547385
1.649257
1.675212
1.622329
2.047335
2.946986
3.286342
3.305808
2.499593
1.215816
1.027321
1.048085
1.105834
1.169423
1.200568
1.205434
1.19927
1.222629
1.26805
1.334883
1.360837
1.949681
2.979104
3.423253
3.402814
2.189436
1.041921
1.086368
1.156121
1.256046
1.372192
1.473739
1.542195
1.580153
1.594753
1.59021
1.542843
1.432537
2.241021
2.722154
2.823701
2.336728
0.873865
0.792757
0.68829
0.606209
0.575388
0.622431
0.711001
0.855697
1.059765
1.292707
1.502938
1.603188
2.310774
3.504686
3.94559
3.878108
3.049831
1.578855
1.096101
1.088315
1.116865
1.157743
1.183373
1.229118
1.310875
1.393929
1.473739
1.574313
1.612272
2.690684
3.423253
3.543942
3.266552
1.904261
1.015642
1.025699
1.086368
1.196999
1.324825
1.444541
1.546737
1.632711
1.672292
1.67067
1.618112
1.496774
2.057392
2.305583
2.026571
1.124651
0.62308
0.556896
0.519586
0.50888
0.571171
0.696077
0.850831
1.054249
1.317363
1.560363
1.704086
1.684296
1.437728
1.032188
0.4972
0.194506
0.081603
0.033587
0.24901
0.727871
1.225549
1.628169
1.894852
2.070045
2.190085
2.239399
2.217013
2.132661
2.230639
3.21302
3.44499
3.2247
2.68452
0.998447
0.829094
0.762585
0.781078
0.900469
1.085395
1.309577
1.535381
1.710575
1.768972
1.725499
1.634333
1.495476
1.650879
2.137527
2.214418
1.737503
0.880029
0.849857
0.852128
0.91669
1.036081
1.194079
1.370895
1.533759
1.675212
1.750804
1.742369
1.651204
1.463682
1.500343
1.672292
1.430914
0.824227
0.757394
0.765505
0.81709
0.948809
1.114918
1.265779
1.412097
1.533435
1.585668
1.569771
1.525973
1.432861
1.312821
1.19635
0.998771
0.787566
0.666878
0.615942
0.640923
0.757394
0.959191
1.192782
1.427021
1.615192
1.683322
1.564905
1.343642
1.10778
0.893656
0.777509
0.765505
0.805735
0.926099
0.965355
1.080528
1.202839
1.3391
1.488339
1.636604
1.761835
1.818935
1.806282
1.719983
1.557443
1.271618
0.845964
0.416092
0.163685
0.067977
0.025152
0.203914
0.671744
1.158716
1.538626
1.806607
2.018136
2.162833
2.219933
2.199818
2.129092
2.0389
1.887714
1.955845
2.286441
1.930864
1.271618
0.838502
0.750257
0.713921
0.747986
0.885869
1.094154
1.314443
1.527595
1.701166
1.797198
1.817637
1.77027
1.634658
1.450056
1.434483
1.282974
0.940049
0.878083
0.876461
0.918312
1.006233
1.129842
1.278107
1.424426
1.538301
1.604485
1.605783
1.554847
1.448758
1.292382
1.128544
0.958866
0.799246
0.669473
0.564358
0.493956
0.486494
0.561438
0.711974
0.945889
1.209003
1.413395
1.528568
1.561012
1.531488
1.449407
1.359215
1.255072
1.050356
0.966977
0.836556
0.703539
0.572468
0.497849
0.516017
0.629893
0.819361
1.056196
1.323852
1.505534
1.591508
1.59897
1.573664
1.527595
2.349381
2.622553
2.220257
1.196999
1.175587
1.139575
1.081826
1.051978
1.0682
1.144117
1.308279
1.53311
1.726796
1.845863
1.808229
1.632387
1.367001
1.1253
0.923179
0.786269
0.749608
0.849533
1.06236
1.294004
1.485419
1.655746
1.800442
1.892905
1.908478
1.842943
1.701166
1.491583
1.257668
1.039325
0.863159
0.783024
0.756745
0.809952
0.901766
1.012073
1.178507
1.36765
1.547061
1.688838
1.765728
1.754049
1.69046
1.589562
1.43351
1.255721
1.086368
0.944916
0.837853
0.790486
0.798597
0.843693
0.947836
1.097074
1.255721
1.37641
1.439025
1.448758
1.401067
1.342669
1.285569
1.177858
1.05944
0.931939
0.795677
0.692508
0.658118
0.679855
0.770047
0.947187
1.163258
1.372192
1.529866
1.600592
1.595077
1.534733
1.446812
1.328394
1.180453
1.029268
0.895278
0.82001
0.80833
0.859915
0.976061
1.099021
1.158392
1.166827
1.151579
1.162285
1.243717
1.383872
1.545763
1.652501
1.658666
1.590859
1.472766
1.257992
1.24534
1.11362
0.940049
0.718463
0.499471
0.325251
0.238304
0.326549
0.610102
1.043219
1.510076
1.865329
2.033709
2.03014
2.444115
2.839598
2.794827
2.09016
1.444865
1.423128
1.42183
1.48185
1.575287
1.694029
1.782274
1.810175
1.756644
1.626547
1.447785
1.263183
1.116865
1.035108
0.976061
0.945565
0.923828
0.956271
1.017913
1.093505
1.230416
1.385818
1.525973
1.628493
1.694353
1.696624
1.643417
1.551928
1.388414
1.186942
0.978657
0.793406
0.66558
0.63703
0.728844
0.877434
1.062036
1.260588
1.437079
1.566527
1.625249
1.608703
1.495152
1.306657
1.082799
0.835582
0.616915
0.492658
0.523155
0.659416
0.845964
1.040623
1.202839
1.329692
1.417613
1.475686
1.510725
1.526622
1.541546
1.520782
1.466926
1.375112
1.228469
1.073715
0.998447
1.00818
1.028944
1.071769
1.127571
1.204137
1.304062
1.369597
1.388089
1.379005
1.356944
1.332287
1.358891
1.408853
1.426048
1.4108
1.360188
1.305684
1.248259
1.191808
1.181102
1.217438
1.299844
1.416639
1.529866
1.600268
1.55355
1.376734
1.084746
0.735009
0.429394
0.234086
0.167902
0.260041
0.524452
0.852453
1.15969
1.373814
1.51916
1.653475
1.793629
1.940597
2.043766
2.06161
1.987964
1.845863
1.673589
1.498721
1.348509
1.187266
1.041921
0.933236
0.864132
0.867377
0.920259
0.982874
1.084097
1.225549
1.377708
1.545114
1.716414
1.838076
1.888363
1.858191
1.736854
1.561985
1.37349
1.206408
1.08215
1.018562
1.014993
1.041921
1.093181
1.171369
1.272592
1.351429
1.403013
1.437403
1.43351
1.408853
1.383547
1.318012
1.222629
1.110376
1.006233
0.933236
0.909877
0.927072
0.978332
1.075337
1.191159
1.289787
1.305035
1.208354
1.067551
0.950431
0.918637
0.932263
0.991958
1.068849
1.151254
1.184995
1.15677
1.101941
1.053276
1.0111
1.015317
1.086692
1.246637
1.456869
1.654772
1.782923
1.794927
1.703762
1.530515
1.319959
1.121407
0.925125
0.741822
0.620484
0.605236
0.672393
0.829418
1.089612
1.400093
1.654772
1.820557
1.915291
1.922753
1.875711
1.77903
1.616489
1.421182
1.231389
1.072093
0.953027
0.915393
0.954649
1.027321
1.15677
1.325799
1.497747
1.640497
1.743991
1.794278
1.757293
1.661261
1.526297
1.357593
1.191484
1.045165
0.924801
0.824876
0.789189
0.819361
0.895927
1.029268
1.193106
1.352078
1.48769
1.584695
1.628818
1.612596
1.551603
1.438052
1.301142
1.126273
0.902091
0.66266
0.455349
0.31195
0.271396
0.415119
0.686668
0.998123
1.323528
1.573664
1.730041
1.843916
1.909776
1.896799
1.775461
1.597997
1.425724
1.280378
1.165529
1.105509
1.083124
1.067551
1.072093
1.037703
0.967626
0.910202
0.898847
0.949133
1.068849
1.221332
1.328394
1.359864
1.343318
1.299195
1.229767
1.185644
1.206408
1.25929
1.320608
1.396525
1.457518
1.500667
1.548683
1.589237
1.610001
1.608054
1.581126
1.492557
1.361162
1.21679
1.084421
0.979306
0.927072
0.94524
1.000718
1.103887
1.251504
1.416315
1.57042
1.684296
1.75048
1.747884
1.693055
1.596375
1.436754
1.244691
1.040948
0.85148
0.703539
0.610751
0.564033
0.577984
0.69997
0.8969
1.136979
1.394578
1.616489
1.768324
1.83321
1.818286
1.714468
1.546412
1.352402
1.153525
0.949133
0.763234
0.644168
0.583823
0.583499
0.682775
0.846613
1.022779
1.214194
1.403662
1.571069
1.694678
1.743018
1.667425
1.497099
1.279405
1.056845
0.877758
0.774589
0.78562
0.901766
1.073066
1.280054
1.477308
1.63628
1.743342
1.766377
1.654124
1.415342
1.066253
0.666553
0.305786
0.121184
0.050134
0.023206
0.18899
0.51991
0.861861
1.222954
1.591833
1.914967
2.132012
2.259838
2.303636
2.263082
2.16186
1.980178
1.717063
1.420857
1.15677
0.966004
0.883598
0.900793
0.975737
1.115567
1.301142
1.453949
1.544466
1.605459
1.643093
1.656719
1.655746
1.638875
1.557767
1.432861
1.288813
1.143468
1.034135
0.968275
0.962435
0.998771
1.076959
1.198621
1.327096
1.439025
1.535057
1.600268
1.595401
1.536679
1.447785
1.304386
1.145739
0.98255
0.828769
0.714569
0.63703
0.625675
0.668825
0.77394
0.957569
1.219385
1.469197
1.649581
1.750155
1.747884
1.683322
1.564256
1.371868
1.1253
0.835907
0.532888
0.243495
0.097176
0.040076
0.039427
0.406035
1.004611
1.53895
1.877657
2.054148
2.096973
2.046037
1.939948
1.749831
1.508454
1.254424
1.003638
0.7827
0.628271
0.58577
0.605236
0.732413
0.98839
1.306982
1.648608
1.947734
2.120657
2.152451
2.098595
1.982449
1.795251
1.57626
1.359539
1.163583
0.998771
0.908579
0.912797
0.971844
1.092208
1.25929
1.42475
1.56166
1.664181
1.719659
1.705059
1.644391
1.534084
1.365379
1.163258
0.974115
0.815143
0.69997
0.675962
0.75415
0.897873
1.085395
1.279405
1.454598
1.587615
1.673914
1.695651
1.646013
1.507156
1.262534
0.95692
0.681477
0.489414
0.393707
0.461513
0.652279
0.849533
1.031539
1.225549
1.429617
1.601241
1.718361
1.786816
1.793305
1.754049
1.673265
1.524026
1.322879
1.09675
0.878407
0.698672
0.600694
0.624053
0.69121
0.788215
0.900144
0.994229
1.063333
1.161312
1.257019
1.327096
1.443567
1.558416
1.525324
1.388738
1.222954
1.07404
0.954649
0.876136
0.853102
0.89398
0.999745
1.158067
1.308604
1.397498
1.437728
1.464655
1.474388
1.489961
1.492232
1.512347
1.515591
1.506183
1.4533
1.383547
1.338776
1.333261
1.376734
1.468224
1.584371
1.694353
1.781301
1.824126
1.759239
1.60189
1.407555
1.178831
0.948809
0.792757
0.769398
0.796651
0.855373
0.939076
1.02797
1.151903
1.307955
1.475362
1.626547
1.726472
1.759239
1.720632
1.62752
1.491259
1.315417
1.108754
0.877758
0.605885
0.310976
0.123131
0.050782
0.022557
0.091661
0.56014
1.068524
1.473739
1.765404
1.940272
1.99867
1.959414
1.796549
1.575287
1.331638
1.068849
0.850182
0.685695
0.626973
0.687966
0.851804
1.095128
1.36473
1.608703
1.812446
1.948708
1.976284
1.934433
1.817962
1.610325
1.36473
1.097074
0.796326
0.499796
0.295728
0.218189
0.291186
0.597125
1.051329
1.48185
1.814068
2.022354
2.122603
2.124225
2.053499
1.920807
1.734583
1.542519
1.367001
1.206083
1.073066
0.994554
0.965355
0.990661
1.086044
1.201866
1.326123
1.438376
1.495152
1.458491
1.362459
1.251504
1.121731
1.023428
0.990985
1.018886
1.04549
1.066902
1.09091
1.107456
1.149632
1.239175
1.349158
1.456545
1.551279
1.610325
1.603188
1.54187
1.392956
1.108754
0.723005
0.344393
0.135783
0.055324
0.025152
0.264583
0.674989
1.039001
1.3391
1.573989
1.764755
1.903287
1.965903
1.918536
1.789736
1.610325
1.37057
1.135033
0.97963
0.903713
0.926748
1.0111
1.105509
1.227496
1.399445
1.56458
1.704735
1.802389
1.852676
1.848134
1.774163
1.660937
1.496774
1.306008
1.111998
0.949782
0.846613
0.800219
0.824552
0.897224
1.022131
1.200568
1.38517
1.542519
1.671967
1.769621
1.792656
1.74464
1.645688
1.480877
1.294978
1.111025
0.964057
0.860888
0.765181
0.711325
0.689588
0.696077
0.746039
0.821956
0.909228
1.014669
1.189213
1.377059
1.546737
1.65899
1.668399
1.599943
1.501965
1.385494
1.249882
1.133086
1.039325
0.936156
0.85667
0.820983
0.830716
0.897224
1.034459
1.283298
1.546412
1.707655
1.716414
1.624276
1.482824
1.322879
1.183373
1.08799
1.045165
1.026024
1.052303
1.143792
1.268374
1.403987
1.519809
1.571718
1.471793
1.249557
0.989363
0.746364
0.568575
0.469948
0.384298
0.30611
0.345691
0.490387
0.695428
1.021482
1.407231
1.772541
2.042144
2.191707
2.255296
2.226097
2.109302
1.917238
1.636604
1.321905
1.044192
0.84856
0.763883
0.830067
0.996176
1.159365
1.327096
1.49353
1.632062
1.740747
1.829966
1.873115
1.847485
1.772866
1.641146
1.464331
1.273241
1.097723
0.955622
0.847586
0.800219
0.804761
0.855048
0.969897
1.117513
1.266428
1.398471
1.492557
1.515267
1.485095
1.445838
1.360837
1.226198
1.069173
0.9394
0.839476
0.774914
0.778158
0.835258
0.943294
1.075662
1.207057
1.333261
1.452003
1.540897
1.54187
1.461411
1.290436
1.031863
0.735009
0.467353
0.258743
0.135783
0.136108
0.257121
0.480979
0.805086
1.126273
1.380952
1.573016
1.727445
1.853649
1.916264
1.911722
1.821206
1.637902
1.411124
1.178182
0.967302
0.790162
0.657145
0.565006
0.525426
0.600369
0.774265
0.972168
1.162934
1.352402
1.452003
1.453625
1.4108
1.312821
1.193106
1.103238
1.069822
1.046138
1.050681
1.086368
1.123353
1.157743
1.224576
1.317688
1.395227
1.456869
1.505209
1.490934
1.426372
1.329692
1.196026
1.06528
0.972492
0.93421
0.906633
0.897873
0.901442
0.901766
0.954649
1.064956
1.198297
1.351104
1.488014
1.580153
1.626547
1.640497
1.573016
1.391009
1.078906
0.64579
0.258419
0.101718
0.042347
0.019637
0.127997
0.71684
1.346887
1.805309
2.083023
2.216364
2.227395
2.160562
2.054148
1.894203
1.706033
1.515591
1.333585
1.121731
0.871919
0.653576
0.510826
0.482925
0.622431
0.925125
1.250206
1.525
1.749831
1.835157
1.806607
1.68462
1.479904
1.254424
1.044192
0.88814
0.788864
0.749284
0.782051
0.86835
0.986443
1.108105
1.223278
1.311199
1.360188
1.347211
1.287191
1.209976
1.090586
0.935832
0.813845
0.723005
0.674015
0.668825
0.713272
0.78562
0.892682
1.058142
1.238526
1.408853
1.557767
1.663208
1.695651
1.651853
1.535057
1.334234
1.103563
0.883598
0.704836
0.574415
0.515368
0.532888
0.606858
0.732413
0.895602
1.075986
1.231065
1.326447
1.335856
1.285569
1.20219
1.101292
0.998771
0.95984
0.932587
0.89106
0.843693
0.812548
0.817739
0.885869
1.047112
1.22782
1.360837
1.387116
1.315417
1.20803
1.099345
1.071444
1.129842
1.097399
0.949782
0.770372
0.625026
0.558518
0.613347
0.747337
0.933561
1.141846
1.30244
1.405933
1.449407
1.466926
1.476335
1.48185
1.439674
1.341047
1.257343
1.160338
1.034135
0.920908
0.830716
0.767776
0.719436
0.710352
0.785944
0.938427
1.108754
1.284271
1.448109
1.525973
1.526297
1.471144
1.371868
1.263508
1.163583
1.081177
1.024402
1.012722
1.034135
1.078906
1.177533
1.305035
1.422804
1.489637
1.495152
1.422479
1.29076
1.158067
1.024402
0.92545
0.92545
0.958542
0.968599
0.956271
0.961462
0.985794
1.035757
1.141197
1.270321
1.387765
1.466926
1.499045
1.453949
1.345913
1.201866
1.01694
0.864781
0.77394
0.737604
0.739875
0.75123
0.746039
0.748959
0.806059
0.901442
0.957569
0.947836
0.918961
0.916041
0.947187
1.06528
1.291733
1.4679
1.57334
1.599943
1.551603
1.491583
1.471793
1.474064
1.463033
1.457842
1.484121
1.541221
1.600592
1.632062
1.613894
1.529866
1.436105
1.345589
1.266428
1.217763
1.222954
1.247611
1.252153
1.261561
1.277783
1.307955
1.380303
1.45914
1.532137
1.602214
1.644066
1.643742
1.591184
1.483472
1.31931
1.134384
0.967302
0.868674
0.861861
0.91669
1.005909
1.110376
1.237878
1.399445
1.565554
1.706681
1.80174
1.844565
1.825424
1.763781
1.657043
1.497747
1.313146
1.118487
0.937778
0.804112
0.753177
0.755123
0.758043
0.781078
0.837853
0.948485
1.121082
1.365379
1.618436
1.759888
1.775785
1.683971
1.506507
1.293031
1.03673
0.756745
0.497849
0.302866
0.168227
0.201643
0.46865
0.832014
1.181426
1.483472
1.755022
1.937677
1.97888
1.91594
1.774488
1.605459
1.399769
1.165854
0.889114
0.535808
0.228246
0.090687
0.037481
0.017041
0.250308
0.784971
1.354024
1.831263
2.128443
2.241021
2.223502
2.072641
1.857867
1.628493
1.419559
1.242095
1.127895
1.089288
1.112323
1.183698
1.269347
1.363757
1.457842
1.550954
1.620707
1.654124
1.649581
1.592157
1.465304
1.315092
1.174938
1.047436
0.947187
0.917664
0.938752
0.990012
1.093181
1.216465
1.357268
1.48769
1.585344
1.6246
1.604161
1.539599
1.417937
1.258641
1.091234
0.939076
0.814819
0.740848
0.74247
0.790811
0.881976
1.023753
1.178831
1.321905
1.438052
1.521106
1.539275
1.49061
1.379979
1.179155
0.923503
0.662011
0.401168
0.186719
0.087119
0.199696
0.387867
0.622106
0.892682
1.174938
1.444865
1.679429
1.819908
1.82737
1.709926
1.465953
1.114594
0.731115
0.365805
0.144868
0.058244
0.025152
0.012499
0.063435
0.380729
0.809303
1.251828
1.618112
1.896799
2.042469
2.08432
2.038575
1.914642
1.759239
1.595401
1.439674
1.294004
1.164232
1.096425
1.052303
1.012073
1.0111
1.063982
1.150281
1.237229
1.35078
1.460762
1.539599
1.572367
1.516564
1.415017
1.29952
1.191159
1.098696
1.054249
1.054898
1.090586
1.1678
1.277134
1.395551
1.500343
1.583397
1.63336
1.621031
1.561012
1.452976
1.287516
1.103238
0.912797
0.723653
0.569873
0.498498
0.505311
0.591285
0.822605
1.089937
1.318986
1.502938
1.629791
1.670994
1.628818
1.539275
1.385818
1.169423
0.92545
0.660389
0.401817
0.217865
0.163685
0.211376
0.364183
0.618862
0.864132
1.039974
1.206408
1.405933
1.581126
1.700517
1.731987
1.652826
1.494828
1.319634
1.157094
1.000069
0.868674
0.788215
0.772967
0.837205
0.969573
1.121407
1.289138
1.451354
1.532786
1.523053
1.500018
1.478282
1.388414
1.257019
1.132437
1.022455
0.955946
0.957893
1.012722
1.108754
1.263508
1.432212
1.584695
1.706033
1.762808
1.715117
1.614218
1.505858
1.351429
1.19343
1.08215
0.994554
0.921232
0.868674
0.877758
0.920259
1.013046
1.156445
1.309577
1.446812
1.558092
1.62752
1.631738
1.582424
1.489637
1.345264
1.175262
0.992607
0.796975
0.600045
0.450158
0.405062
0.4547
0.608156
0.842395
1.113296
1.386467
1.606756
1.713819
1.692731
1.574638
1.35078
1.038352
0.755448
0.544243
0.42907
0.476437
0.633137
0.706459
0.622755
0.523804
0.485196
0.599396
0.890736
1.277134
1.618112
1.876035
1.97596
1.929242
1.772217
1.563283
1.332287
1.117838
0.943618
0.851804
0.830067
0.881327
1.014344
1.180778
1.344616
1.478282
1.568149
1.618436
1.641795
1.628169
1.545763
1.42183
1.278432
1.137628
1.020508
0.942969
0.927721
0.95984
1.051005
1.18824
1.34786
1.502289
1.625249
1.697597
1.701166
1.654124
1.55355
1.3962
1.231065
1.069498
0.927397
0.821956
0.778807
0.790811
0.844666
0.957569
1.086692
1.207381
1.315741
1.383872
1.369597
1.274538
1.129517
0.924477
0.655198
0.43718
0.288591
0.233437
0.264258
0.431341
0.639301
0.847586
1.061062
1.277458
1.469846
1.652826
1.783247
1.824126
1.754697
1.542195
1.178507
0.738577
0.331091
0.131241
0.054351
0.070248
0.398897
0.801841
1.232362
1.630116
1.889986
1.999319
2.032736
2.052526
2.008403
1.908154
1.804984
1.677807
1.528244
1.354673
1.189862
1.059116
0.989363
0.975737
0.992607
1.037054
1.094803
1.15677
1.210301
1.283298
1.397174
1.5104
1.575935
1.538626
1.426697
1.299195
1.181751
1.084746
1.032837
1.040299
1.067551
1.118811
1.216141
1.321905
1.413071
1.486068
1.537004
1.538301
1.484446
1.403338
1.28784
1.151254
1.006233
0.87419
0.774914
0.730791
0.756097
0.836231
0.975088
1.153525
1.333909
1.479579
1.585993
1.645364
1.637253
1.565554
1.423453
1.220034
0.97671
0.678233
0.360615
0.145516
0.058893
0.025477
0.013473
0.333038
0.826498
1.320608
1.682674
1.859813
1.919833
1.888688
1.778057
1.58502
1.318661
1.026348
0.756097
0.553327
0.467677
0.55722
0.72852
0.895278
1.048734
1.181751
1.328394
1.47601
1.555496
1.590535
1.605459
1.600917
1.539924
1.437079
1.315092
1.242744
1.19927
1.159041
1.177209
1.231389
1.315741
1.42183
1.541221
1.654772
1.735231
1.772866
1.740747
1.659314
1.549656
1.390685
1.220358
1.072742
0.959515
0.876461
0.850182
0.885545
0.962435
1.095777
1.255397
1.412422
1.543168
1.640497
1.67878
1.6246
1.49061
1.315092
1.120433
0.940698
0.796002
0.698023
0.643519
0.656821
0.723653
0.832662
1.00234
1.196675
1.374139
1.512022
1.593455
1.595726
1.531488
1.411773
1.228145
1.025699
0.836231
0.697374
0.613671
0.57409
0.562087
0.541323
0.492983
0.469948
0.555922
0.726573
0.93421
1.178182
1.425075
1.600268
1.6817
1.628493
1.50456
1.37057
1.238202
1.122704
1.055871
1.027321
1.023428
1.097723
1.232038
1.398147
1.546737
1.587291
1.512022
1.358891
1.211599
1.102265
1.024402
1.00526
1.047761
1.086368
1.092532
1.124975
1.196675
1.293355
1.421506
1.543817
1.662883
1.758266
1.823477
1.83613
1.791034
1.70441
1.553874
1.366353
1.167476
0.994554
0.854724
0.778158
0.776211
0.831365
0.942969
1.100643
1.275836
1.438376
1.560687
1.626547
1.611623
1.521755
1.38225
1.192782
0.969573
0.702565
0.381054
0.151356
0.06084
0.02645
0.013148
0.266854
0.788864
1.296924
1.686891
1.917887
2.001266
1.945788
1.823477
1.665154
1.468873
1.27908
1.114918
0.971844
0.857319
0.778482
0.671096
0.600045
0.646114
0.785295
0.990012
1.243717
1.535057
1.737503
1.788763
1.751453
1.632387
1.463033
1.30763
1.178831
1.100643
1.039974
1.00234
0.940049
0.788864
0.596801
0.441722
0.395329
0.492009
0.728195
1.108105
1.524351
1.780652
1.825748
1.749831
1.629467
1.492881
1.370246
1.290111
1.259615
1.277783
1.366028
1.48477
1.594753
1.682025
1.741396
1.745938
1.679105
1.584046
1.497747
1.389387
1.242744
1.099021
0.97963
0.898847
0.881327
0.913122
0.990336
1.133735
1.299844
1.454598
1.572367
1.655421
1.675536
1.627196
1.522729
1.362459
1.187266
1.020508
0.876461
0.758692
0.68018
0.679206
0.737928
0.860888
1.034135
1.213221
1.371219
1.48477
1.539599
1.512347
1.432537
1.297897
1.069822
0.791135
0.54035
0.368401
0.281453
0.323305
0.482925
0.704188
0.944916
1.152876
1.31347
1.417937
1.479579
1.500018
1.445514
1.276485
0.949782
0.599396
0.356397
0.263285
0.371645
0.591934
0.900144
1.164556
1.328718
1.425724
1.452976
1.452327
1.443567
1.441296
1.465304
1.511698
1.5675
1.577233
1.454598
1.214519
0.917664
0.617564
0.408955
0.333687
0.444642
0.684397
0.947187
1.195377
1.422804
1.565554
1.705708
1.824775
1.897447
1.894203
1.787141
1.63044
1.450705
1.255721
1.097399
1.029268
1.026997
1.047761
1.077284
1.115567
1.182075
1.264481
1.357917
1.4679
1.555172
1.607405
1.568149
1.428319
1.261561
1.104536
0.976061
0.877434
0.840124
0.846613
0.893007
0.996825
1.115242
1.206083
1.212572
1.044516
0.726249
0.398249
0.179582
0.103665
0.311625
0.69705
1.143792
1.429292
1.487366
1.477957
1.44746
1.45038
1.517538
1.616165
1.704086
1.744316
1.706033
1.498072
1.146712
0.733386
0.323629
0.127673
0.052405
0.02353
0.011851
0.033263
0.433612
0.938427
1.42183
1.826397
2.125848
2.278979
2.347759
2.35295
2.285793
2.165104
1.963632
1.609028
1.120109
0.595179
0.238304
0.095878
0.042996
0.271071
0.707756
1.179155
1.581126
1.852351
2.020732
2.131363
2.160562
2.10184
1.974013
1.780652
1.551279
1.324501
1.123678
0.95984
0.844991
0.804112
0.820334
0.894304
1.031539
1.189213
1.325799
1.434483
1.516889
1.545439
1.516564
1.431888
1.279729
1.105185
0.937129
0.798597
0.70289
0.667851
0.703539
0.781727
0.909553
1.063658
1.207057
1.320608
1.395876
1.413395
1.321581
1.109078
0.796975
0.411226
0.161089
0.064408
0.02937
0.038778
0.444318
0.899171
1.241122
1.492232
1.662234
1.778057
1.853325
1.897447
1.903936
1.853974
1.731014
1.47082
1.125624
0.798597
0.554625
0.450806
0.533861
0.745715
0.973141
1.133411
1.261561
1.359539
1.411124
1.375437
1.219061
1.007531
0.810601
0.668176
0.60264
0.616591
0.702241
0.832338
0.978657
1.147037
1.299195
1.416964
1.537653
1.665479
1.785843
1.890634
1.962983
1.979853
1.914967
1.783572
1.564905
1.257343
0.962111
0.738253
0.622431
0.639626
0.756745
0.932263
1.116865
1.302764
1.464007
1.595726
1.695651
1.755671
1.760537
1.70733
1.617787
1.476984
1.296924
1.103238
0.927072
0.784322
0.695752
0.680504
0.708081
0.766803
0.866403
0.986119
1.104212
1.213545
1.326772
1.411773
1.437079
1.403662
1.2966
1.15093
1.005909
0.865754
0.733711
0.601992
0.44594
0.264907
0.109504
0.043969
0.019637
0.009904
0.248037
0.807681
1.422155
1.927944
2.155695
2.094378
1.908478
1.693704
1.486717
1.313146
1.217114
1.183373
1.183049
1.212247
1.21679
1.203812
1.192133
1.212896
1.263183
1.32223
1.425399
1.489961
1.464655
1.379005
1.267076
1.162934
1.086368
1.06236
1.074364
1.129517
1.23366
1.359215
1.475686
1.559714
1.60773
1.580153
1.499694
1.386467
1.228794
1.060413
0.908579
0.789837
0.703539
0.665905
0.692508
0.772318
0.905011
1.084097
1.272267
1.432861
1.558741
1.629467
1.620383
1.558416
1.450705
1.278756
1.072417
0.832987
0.528995
0.223056
0.088741
0.036832
0.017041
0.012824
0.443669
1.038352
1.496774
1.756968
1.877982
1.895176
1.832885
1.696949
1.494503
1.283622
1.087017
0.943618
0.869972
0.858293
0.846613
0.761288
0.669798
0.656496
0.65455
0.681477
0.797948
0.972492
1.165854
1.337803
1.478606
1.59897
1.599619
1.516889
1.413395
1.34494
1.318012
1.313795
1.329043
1.376734
1.449407
1.521755
1.577558
1.611947
1.594753
1.537653
1.442918
1.304711
1.156121
1.012722
0.882625
0.782051
0.752528
0.780429
0.846937
0.965679
1.117189
1.277458
1.414044
1.514942
1.578206
1.581126
1.538626
1.443243
1.301791
1.143144
0.999745
0.88522
0.807681
0.797624
0.839476
0.921557
1.053276
1.197324
1.318986
1.408204
1.449083
1.422804
1.3391
1.224576
1.077608
0.904037
0.675638
0.452104
0.302217
0.225327
0.262961
0.423554
0.639626
0.904686
1.181751
1.413071
1.578855
1.63628
1.54187
1.301791
0.958542
0.604911
0.306434
0.124104
0.051107
0.02353
0.215918
0.581877
0.923503
1.270321
1.578855
1.82153
2.023327
2.16186
2.214093
2.178081
2.07037
1.885443
1.648608
1.384845
1.101292
0.804761
0.534185
0.37197
0.357695
0.488765
0.755123
1.134384
1.496125
1.767999
1.924051
1.955196
1.905234
1.801416
1.631413
1.438052
1.251504
1.091559
0.971844
0.903389
0.894629
0.919286
1.000069
1.133086
1.27097
1.378357
1.455247
1.506183
1.511374
1.481201
1.408529
1.275187
1.112971
0.961137
0.849857
0.776211
0.765505
0.810277
0.883598
1.000394
1.134708
1.271943
1.394903
1.473091
1.464331
1.326772
1.108429
0.843044
0.545865
0.28048
0.151681
0.20359
0.346988
0.513422
0.727871
0.980928
1.242095
1.455247
1.568149
1.574962
1.49353
1.332936
1.176236
1.055547
0.981901
1.021806
1.077608
1.105509
1.093505
1.080528
1.091883
1.089612
1.105185
1.152552
1.206732
1.273241
1.414368
1.546737
1.591508
1.591184
1.521106
1.337803
1.124002
0.930965
0.796975
0.735982
0.769723
0.868026
1.005585
1.181426
1.363757
1.534733
1.680403
1.78195
1.814393
1.748533
1.61876
1.445189
1.246962
1.049707
0.879705
0.755772
0.680828
0.689264
0.748959
0.855048
1.023753
1.207381
1.375761
1.515591
1.626222
1.670994
1.649581
1.573989
1.437728
1.265454
1.08215
0.917015
0.796002
0.727547
0.730142
0.777834
0.862186
0.971195
1.054898
1.072417
1.031539
0.966328
0.873541
0.786593
0.743119
0.749284
0.749284
0.671744
0.541647
0.397275
0.322656
0.441722
0.655847
0.875163
1.002989
1.011749
0.970221
0.957893
0.978332
0.973141
0.996176
1.038028
1.026997
0.971844
0.949782
0.936805
0.919935
0.917339
0.84564
0.741173
0.729493
0.868026
1.075986
1.291084
1.53895
1.744964
1.815042
1.759564
1.604161
1.423777
1.282649
1.177533
1.127571
1.104861
1.110376
1.162934
1.276809
1.427021
1.572691
1.689487
1.773839
1.818286
1.786167
1.694029
1.560038
1.374463
1.183698
1.012398
0.878732
0.778482
0.738253
0.757719
0.821632
0.942969
1.098372
1.257992
1.388089
1.476335
1.517213
1.493205
1.420208
1.308928
1.152876
0.995852
0.862186
0.764532
0.710027
0.719436
0.740199
0.750906
0.80833
0.905984
0.995527
1.064307
1.080204
0.986443
0.815468
0.63119
0.484872
0.441722
0.503364
0.672069
0.895278
1.108105
1.255721
1.333909
1.384845
1.443567
1.452976
1.347211
1.131788
0.82293
0.516342
0.384947
0.480979
0.654874
0.910202
1.151579
1.328394
1.398147
1.42475
1.456545
1.508129
1.603837
1.722903
1.829641
1.897447
1.917238
1.881875
1.751778
1.541221
1.292058
1.024726
0.75707
0.551705
0.454051
0.464433
0.553002
0.684073
0.862186
1.097074
1.330665
1.533435
1.682025
1.759888
1.77027
1.728094
1.645364
1.507156
1.330016
1.134708
0.958542
0.822281
0.747986
0.742146
0.781402
0.829743
0.882301
0.950431
1.026348
1.086692
1.13633
1.203488
1.280378
1.302764
1.242095
1.143468
1.039974
0.952702
0.894629
0.893331
0.950107
1.034459
1.152876
1.286542
1.41372
1.492881
1.482175
1.337478
1.04549
0.679855
0.33174
0.134161
0.077061
0.323954
0.685046
0.98547
1.18824
1.311524
1.394578
1.491583
1.592806
1.682674
1.736529
1.720956
1.592481
1.374463
1.133735
0.893656
0.681802
0.516017
0.458268
0.505311
0.608805
0.789837
0.986119
1.1824
1.379654
1.512671
1.572367
1.55063
1.396525
1.091559
0.751879
0.480654
0.348935
0.403764
0.551056
0.774914
0.987416
1.121082
1.25053
1.403013
1.595077
1.780328
1.904261
1.974013
2.000292
1.9818
1.89907
1.753724
1.543817
1.271618
0.994878
0.770696
0.632488
0.604911
0.701268
0.847586
1.003314
1.172667
1.335207
1.473739
1.578206
1.645688
1.657368
1.610325
1.521431
1.378032
1.207057
1.028295
0.858293
0.710352
0.60264
0.57993
0.612373
0.681153
0.811574
1.014669
1.225874
1.379654
1.455247
1.428968
1.343318
1.227171
1.075337
0.918637
0.770047
0.662985
0.60264
0.584472
0.564682
0.541323
0.592259
0.698348
0.822281
0.989039
1.174289
1.309901
1.368948
1.355971
1.318986
1.208354
1.019535
0.808006
0.635732
0.544243
0.586743
0.72852
0.906957
1.085719
1.244366
1.38517
1.486717
1.542195
1.494179
1.338127
1.150605
0.968599
0.813197
0.758692
0.813521
0.894629
0.924152
0.936156
0.972817
1.032188
1.107456
1.180778
1.239824
1.267076
1.269996
1.24242
1.230416
1.246637
1.21679
1.161961
1.111674
1.070471
1.030241
1.010127
1.023753
1.062684
1.141521
1.245988
1.354349
1.436754
1.485419
1.493854
1.41891
1.237229
0.943618
0.594854
0.297999
0.140974
0.202941
0.402142
0.677909
0.956271
1.180129
1.381276
1.550305
1.692406
1.797522
1.85884
1.859813
1.782599
1.650879
1.450705
1.160014
0.813845
0.487143
0.23214
0.094581
0.042347
0.216891
0.512124
0.82812
1.137304
1.420857
1.635306
1.775137
1.820557
1.786492
1.695651
1.512996
1.221007
0.844018
0.492009
0.225975
0.093607
0.087119
0.312599
0.609778
0.897873
1.188564
1.485419
1.732636
1.887066
1.942868
1.920482
1.823153
1.651204
1.447136
1.244042
1.062684
0.923503
0.857968
0.861537
0.900144
0.977683
1.066578
1.165205
1.262534
1.339425
1.357593
1.341696
1.293031
1.200244
1.068849
0.937454
0.798597
0.629244
0.421608
0.260041
0.171795
0.168227
0.313572
0.620809
1.009802
1.363757
1.645039
1.803687
1.805633
1.615516
1.314443
0.994229
0.710027
0.494605
0.418688
0.423879
0.443345
0.466379
0.549758
0.748959
1.05944
1.39328
1.681376
1.881226
1.974662
1.966227
1.860138
1.685593
1.483472
1.285893
1.131788
1.011749
0.917339
0.845315
0.81709
0.875487
1.003638
1.203163
1.428643
1.616489
1.709926
1.715766
1.668723
1.555821
1.387116
1.213545
1.047436
0.883598
0.747661
0.684722
0.685371
0.743444
0.857644
1.007207
1.158067
1.299195
1.403662
1.443567
1.431563
1.378681
1.269023
1.148983
1.04257
0.953351
0.883923
0.864132
0.898847
0.965355
1.068849
1.200892
1.339749
1.451029
1.542843
1.593455
1.539599
1.378032
1.148983
0.877434
0.605885
0.355099
0.18899
0.173093
0.281129
0.455349
0.731764
1.053925
1.277134
1.383547
1.458167
1.522729
1.511049
1.423777
1.306657
1.175587
1.062684
0.97671
0.918637
0.872892
0.860239
0.858941
0.808979
0.747661
0.75707
0.852777
0.981577
1.151903
1.334234
1.498721
1.594753
1.616489
1.563283
1.472117
1.344291
1.195701
1.051329
0.943294
0.892358
0.891385
0.97087
1.116216
1.288165
1.439674
1.534084
1.513645
1.379979
1.214194
1.046138
0.896575
0.850182
0.909553
0.985145
0.997798
0.986119
1.000718
1.058467
1.17656
1.308279
1.432861
1.528893
1.580153
1.563931
1.438052
1.225549
0.929019
0.556896
0.233113
0.092958
0.039103
0.01769
0.160116
0.518937
0.987092
1.426048
1.70441
1.798171
1.792007
1.748533
1.666128
1.541221
1.340722
1.073391
0.787566
0.492658
0.285995
0.240899
0.362886
0.60848
0.827147
1.043867
1.260912
1.443567
1.602863
1.74756
1.861435
1.900043
1.87052
1.774488
1.591833
1.377059
1.186942
1.037379
0.921881
0.857319
0.841747
0.872243
0.966653
1.080204
1.204137
1.341696
1.457193
1.523053
1.525973
1.482824
1.381601
1.231065
1.073066
0.936805
0.830067
0.770372
0.774589
0.81709
0.90566
1.038028
1.185969
1.322879
1.435781
1.513645
1.529217
1.484446
1.390685
1.235931
1.053276
0.868999
0.706459
0.533537
0.279507
0.110153
0.044618
0.019313
0.00958
0.044618
0.544567
1.121407
1.683971
2.049282
2.136554
2.0389
1.842618
1.613245
1.383872
1.177858
0.983848
0.796651
0.612049
0.460539
0.412848
0.418688
0.467677
0.598747
0.830067
1.136655
1.371543
1.554199
1.671318
1.660288
1.583073
1.476984
1.358891
1.247935
1.174289
1.15093
1.167476
1.240149
1.345264
1.457193
1.562958
1.635306
1.652826
1.598646
1.497747
1.351104
1.186293
1.03965
0.927072
0.845315
0.793731
0.805086
0.855048
0.949782
1.08507
1.234309
1.363433
1.45914
1.512996
1.505209
1.455247
1.360513
1.201541
1.01986
0.84564
0.70289
0.605236
0.580579
0.62016
0.713272
0.863483
1.034783
1.197648
1.324176
1.39912
1.415017
1.343642
1.192782
0.962111
0.668825
0.390462
0.229869
0.219487
0.332389
0.531266
0.759341
1.007531
1.236904
1.407555
1.546088
1.665479
1.731338
1.673914
1.46498
1.114918
0.657145
0.267503
0.106909
0.044943
0.021259
0.288915
0.733711
1.076635
1.324501
1.563607
1.784221
1.954223
2.060637
2.098595
2.057068
1.953899
1.800767
1.597348
1.377708
1.138602
0.911175
0.72852
0.622755
0.566953
0.491685
0.441398
0.450158
0.543918
0.723978
1.021482
1.362135
1.619734
1.780652
1.799793
1.680727
1.486392
1.279405
1.08507
0.909553
0.792109
0.741497
0.767452
0.87419
0.978008
1.042245
1.094803
1.12822
1.10259
1.052627
1.039325
1.047112
1.029592
0.926423
0.738253
0.532563
0.401493
0.347313
0.398897
0.604911
0.929343
1.301791
1.60481
1.810824
1.94741
1.99575
1.968498
1.882524
1.722579
1.51916
1.301466
1.106483
0.946862
0.840773
0.783349
0.764856
0.819036
0.926099
1.07112
1.260912
1.461735
1.61876
1.668399
1.622329
1.506507
1.335532
1.140224
0.953351
0.794704
0.670122
0.592583
0.565006
0.580579
0.676935
0.846613
1.040623
1.254099
1.456545
1.594753
1.646662
1.596375
1.43643
1.218412
0.898198
0.513746
0.2117
0.083874
0.035534
0.016068
0.065382
0.496876
0.964382
1.360188
1.660612
1.836779
1.878955
1.858191
1.792332
1.661585
1.488339
1.295302
1.091883
0.879705
0.715218
0.622755
0.616915
0.737604
0.910526
1.097723
1.2966
1.460438
1.570096
1.626222
1.638226
1.584695
1.46206
1.313146
1.169423
1.04841
0.968599
0.952702
0.990336
1.071444
1.197648
1.332612
1.450705
1.537004
1.588264
1.582749
1.529217
1.440647
1.29952
1.138277
0.981577
0.850182
0.747986
0.684722
0.690561
0.751555
0.863483
1.017264
1.174613
1.291084
1.326123
1.291409
1.21387
1.120433
1.014344
0.86835
0.726898
0.610427
0.520559
0.493307
0.543269
0.660389
0.807357
0.978657
1.157419
1.336505
1.480553
1.573016
1.594753
1.549981
1.473739
1.351753
1.168125
0.949458
0.725276
0.543269
0.416741
0.372618
0.420959
0.5689
0.807032
1.048085
1.271943
1.434159
1.541221
1.585993
1.563607
1.521106
1.432212
1.288813
1.114918
0.964382
0.858941
0.81125
0.832662
0.900144
1.00818
1.130815
1.206732
1.167476
1.043543
0.906308
0.764856
0.669149
0.682775
0.797624
0.927721
1.010775
1.022779
0.991634
0.987416
1.042245
1.129193
1.259939
1.410475
1.54771
1.629467
1.649581
1.622654
1.534408
1.390685
1.204461
0.98839
0.778482
0.619511
0.529968
0.477085
0.440425
0.405062
0.410577
0.495902
0.655198
0.90566
1.187915
1.387441
1.495801
1.537328
1.528568
1.443243
1.319634
1.186293
1.089612
1.03965
1.001367
0.981252
1.005585
1.084421
1.193755
1.296275
1.358566
1.383547
1.392307
1.369272
1.312821
1.238526
1.130491
0.991958
0.835582
0.692832
0.598747
0.586094
0.63119
0.705485
0.809628
0.90274
0.8969
0.730791
0.513097
0.312599
0.190937
0.291835
0.538727
0.809628
1.094154
1.266752
1.281676
1.275512
1.302764
1.345589
1.4108
1.531813
1.668074
1.783247
1.863707
1.909451
1.901341
1.825424
1.695975
1.504236
1.289787
1.084746
0.908904
0.789837
0.743768
0.758692
0.805735
0.887816
1.013371
1.149632
1.272267
1.373814
1.441296
1.444216
1.393929
1.305035
1.157419
1.001367
0.849533
0.72852
0.648385
0.60848
0.602965
0.632164
0.698672
0.767452
0.833636
0.916041
0.969248
0.995203
1.043867
1.1253
1.19343
1.174289
1.067875
0.877758
0.65455
0.468975
0.377485
0.383
0.497525
0.755772
1.055547
1.326772
1.536679
1.688189
1.760862
1.735231
1.674238
1.566851
1.425075
1.260263
1.104861
0.974439
0.884572
0.865106
0.886843
0.926423
0.977035
0.99942
0.977359
0.941671
0.930641
0.940698
1.026997
1.199595
1.330989
1.359539
1.292382
1.170396
1.050681
0.983199
0.979954
1.021482
1.120109
1.248259
1.392956
1.512347
1.580802
1.593779
1.551928
1.477957
1.330341
1.081177
0.785295
0.515693
0.305461
0.180555
0.221433
0.37197
0.575388
0.818712
1.061387
1.277783
1.446487
1.572367
1.641471
1.650879
1.58502
1.451678
1.26513
1.08507
0.948809
0.851155
0.827472
0.897224
0.986767
1.092532
1.236255
1.383872
1.500667
1.588913
1.635631
1.591833
1.474713
1.32515
1.127246
0.917339
0.746364
0.654225
0.592259
0.587068
0.646763
0.752852
0.945565
1.181102
1.395227
1.580802
1.705059
1.757942
1.724525
1.632387
1.494828
1.311199
1.126598
0.960489
0.791784
0.648385
0.55722
0.51991
0.518937
0.583823
0.689588
0.81709
0.932263
1.052303
1.170071
1.277134
1.387116
1.474388
1.507805
1.458491
1.353375
1.240797
1.15677
1.124975
1.126922
1.164556
1.237229
1.326772
1.415017
1.476659
1.502614
1.46206
1.319634
1.088315
0.784971
0.488116
0.276587
0.211376
0.27172
0.422257
0.681153
0.957244
1.229118
1.483148
1.685269
1.826397
1.901016
1.909127
1.842943
1.737178
1.59313
1.396525
1.175587
0.962111
0.796651
0.687966
0.650007
0.685695
0.795353
0.972817
1.175911
1.381925
1.548683
1.660937
1.692406
1.616814
1.493854
1.345913
1.180129
1.021806
0.91669
0.862186
0.846289
0.884572
0.949133
1.04549
1.177858
1.293355
1.334558
1.327745
1.281027
1.186617
1.086044
1.052952
1.041596
1.006558
0.92253
0.815468
0.744417
0.733711
0.797624
0.904686
1.068849
1.260912
1.451029
1.578531
1.573989
1.393605
1.074688
0.732089
0.415443
0.181853
0.104314
0.290862
0.551056
0.775238
1.003962
1.206732
1.381601
1.569122
1.739774
1.892905
2.008728
2.077832
2.06453
1.976933
1.847485
1.661261
1.445838
1.235931
1.034783
0.839151
0.690561
0.646439
0.675638
0.790811
1.002665
1.25053
1.468224
1.632062
1.735231
1.746911
1.698246
1.609352
1.46206
1.285245
1.100967
0.924477
0.77394
0.706134
0.718138
0.764856
0.86543
0.999096
1.161312
1.321905
1.448758
1.524026
1.535706
1.507156
1.432861
1.285569
1.088639
0.858941
0.64287
0.458593
0.350882
0.359641
0.484223
0.682451
0.920259
1.178182
1.405284
1.561336
1.59605
1.467251
1.247935
0.98547
0.697374
0.438478
0.294755
0.298648
0.397275
0.557544
0.753177
1.004611
1.266103
1.483472
1.662559
1.818935
1.940921
1.958116
1.847485
1.62168
1.289462
0.895278
0.464108
0.184124
0.075115
0.032939
0.124104
0.439451
0.84856
1.30244
1.6963
1.962658
2.143691
2.253674
2.256269
2.170619
2.017812
1.80466
1.577558
1.362135
1.190511
1.066578
1.010775
1.010451
1.049707
1.148659
1.276809
1.405284
1.520458
1.60773
1.643093
1.613245
1.536355
1.405933
1.237553
1.059116
0.900793
0.774589
0.695103
0.689913
0.735333
0.818063
0.949133
1.092857
1.22782
1.330341
1.389387
1.393605
1.340398
1.254424
1.126273
0.988714
0.868674
0.76583
0.675638
0.624053
0.628271
0.676611
0.773616
0.900469
1.03381
1.169423
1.263183
1.284596
1.199595
1.018562
0.808979
0.612049
0.494605
0.478383
0.509204
0.556247
0.666229
0.835582
1.031539
1.266103
1.490285
1.669047
1.791034
1.848134
1.848458
1.781301
1.653799
1.494179
1.31931
1.144766
0.994878
0.886843
0.821307
0.845315
0.92253
1.039001
1.189537
1.34494
1.482499
1.594428
1.67586
1.701491
1.671318
1.591508
1.44746
1.276809
1.101616
0.944267
0.818063
0.748635
0.736306
0.769723
0.865754
1.009802
1.164556
1.306333
1.421182
1.49937
1.513969
1.469522
1.374788
1.221007
1.021482
0.796975
0.575713
0.387542
0.284049
0.262961
0.317141
0.46573
0.666553
0.911824
1.154823
1.319634
1.40496
1.475037
1.523053
1.509427
1.420533
1.263183
1.07404
0.892682
0.731115
0.625675
0.616591
0.711325
0.903064
1.153201
1.406258
1.614867
1.769946
1.840672
1.814717
1.714143
1.541546
1.337803
1.130166
0.966653
0.856995
0.81125
0.849857
0.938752
1.073066
1.2395
1.37933
1.449407
1.439999
1.366677
1.239824
1.09383
0.950431
0.803464
0.696726
0.640275
0.63411
0.670771
0.761936
0.886194
1.000069
1.129842
1.27908
1.430266
1.556794
1.640497
1.662234
1.603512
1.502289
1.368299
1.20803
1.070795
0.959191
0.879705
0.847586
0.85959
0.898847
0.972817
1.095128
1.211274
1.269347
1.26805
1.245664
1.195701
1.128544
1.10259
1.091559
1.060413
1.006882
0.943618
0.87711
0.846289
0.877758
0.954649
1.073391
1.241771
1.421182
1.562634
1.653475
1.677807
1.61065
1.488663
1.316714
1.093505
0.84272
0.596152
0.377161
0.177311
0.073493
0.030019
0.049485
0.304812
0.731115
1.241446
1.648608
1.88447
1.962009
1.914642
1.79882
1.631089
1.428643
1.241446
1.091559
0.99131
0.932912
0.937778
0.997149
1.111025
1.279729
1.455247
1.604485
1.721605
1.78487
1.772866
1.717063
1.61876
1.448109
1.234309
1.010775
0.812548
0.662336
0.585121
0.614969
0.729169
0.892358
1.077284
1.260263
1.414693
1.512996
1.542195
1.473739
1.346238
1.196675
1.004611
0.796651
0.647736
0.572468
0.540674
0.611076
0.764856
0.941671
1.131788
1.313795
1.468873
1.591508
1.673589
1.692731
1.625249
1.494179
1.289787
0.998771
0.674664
0.415443
0.262312
0.221109
0.328496
0.561113
0.844018
1.133086
1.382574
1.570745
1.707655
1.79006
1.793305
1.674563
1.409178
1.022131
0.598747
0.250308
0.100096
0.042023
0.078359
0.42031
0.788864
1.087017
1.355646
1.595401
1.794927
1.949357
2.052201
2.059663
1.997048
1.885768
1.716414
1.52792
1.33618
1.15093
0.995527
0.91085
0.894629
0.92545
1.02505
1.161312
1.301791
1.431239
1.537004
1.592481
1.574638
1.508454
1.391334
1.221332
1.046463
0.889438
0.767127
0.684722
0.670447
0.709378
0.790162
0.928694
1.088639
1.244366
1.394254
1.514618
1.562309
1.528568
1.445838
1.315092
1.152876
0.976061
0.824552
0.70581
0.647088
0.650332
0.70289
0.796002
0.924477
1.068849
1.204786
1.298222
1.320932
1.289787
1.231065
1.134384
0.971844
0.827472
0.695103
0.575064
0.489089
0.482276
0.550731
0.636381
0.788864
0.969897
1.155472
1.344616
1.501641
1.587939
1.598646
1.577233
1.515916
1.3391
1.047112
0.690237
0.372294
0.162387
0.066031
0.028397
0.156223
0.573766
1.037054
1.450056
1.757942
1.968498
2.086267
2.115141
2.065503
1.940272
1.767999
1.558092
1.333909
1.121731
0.945889
0.832662
0.752852
0.73728
0.82001
0.962435
1.138926
1.354673
1.573664
1.699868
1.727121
1.673265
1.530839
1.363108
1.196026
1.045165
0.926748
0.867052
0.866403
0.906957
1.007856
1.140224
1.267076
1.382899
1.484446
1.54479
1.535381
1.46498
1.326123
1.13633
0.935507
0.742146
0.591285
0.509529
0.506609
0.550083
0.63703
0.782376
0.944267
1.114918
1.269347
1.372192
1.411773
1.401716
1.323528
1.151579
0.941996
0.726898
0.55138
0.456322
0.474166
0.573442
0.727222
0.926099
1.172991
1.406258
1.60481
1.749831
1.841645
1.86468
1.821855
1.715766
1.495476
1.221656
0.948485
0.70581
0.536456
0.516991
0.645465
0.822281
1.043219
1.297249
1.498072
1.651528
1.737827
1.733934
1.628493
1.472117
1.284596
1.066253
0.861212
0.700294
0.591934
0.552354
0.59745
0.700294
0.855373
1.024402
1.15969
1.282649
1.415342
1.519809
1.537328
1.486717
1.394903
1.252477
1.079879
0.906308
0.761288
0.662011
0.612373
0.63411
0.701268
0.801193
0.957893
1.150605
1.336505
1.485095
1.57626
1.592481
1.544466
1.42475
1.230416
0.997798
0.740848
0.511151
0.352179
0.289888
0.350233
0.513097
0.755123
0.998771
1.234309
1.433185
1.562309
1.625898
1.645364
1.617463
1.529542
1.349807
1.096425
0.835258
0.622755
0.471246
0.430367
0.509204
0.663958
0.903064
1.171045
1.372192
1.474388
1.515916
1.490934
1.40204
1.268699
1.112971
0.970221
0.886194
0.862186
0.886518
0.924152
0.959191
1.003638
1.115567
1.28784
1.443567
1.542195
1.598321
1.620383
1.599943
1.53895
1.446163
1.304386
1.129842
0.897224
0.648385
0.434585
0.279507
0.189964
0.211052
0.399871
0.68829
1.018237
1.294978
1.521755
1.698571
1.786816
1.779354
1.69922
1.575935
1.435132
1.294978
1.158392
1.029917
0.963408
0.969897
1.029917
1.159041
1.302115
1.418586
1.508129
1.572042
1.584695
1.535381
1.443243
1.29368
1.096101
0.889114
0.718787
0.602316
0.534185
0.549758
0.635084
0.763559
0.931614
1.117189
1.290436
1.42183
1.501316
1.511374
1.464331
1.371219
1.187591
0.935183
0.668176
0.459242
0.350233
0.354775
0.452429
0.626324
0.849208
1.03673
1.132437
1.160014
1.178182
1.197972
1.229442
1.298546
1.357917
1.375112
1.33618
1.234633
1.09967
0.957244
0.855048
0.798922
0.770047
0.762585
0.724302
0.711649
0.741173
0.84856
1.0682
1.37349
1.61357
1.706357
1.659639
1.53311
1.380628
1.225874
1.097723
1.01986
0.971844
0.973466
1.038028
1.129193
1.222629
1.314119
1.387441
1.411773
1.40204
1.374463
1.310226
1.216141
1.088639
0.978332
0.884896
0.847262
0.853426
0.883274
0.968599
1.093181
1.20803
1.27389
1.292707
1.284596
1.249557
1.179804
1.095452
0.984821
0.857968
0.726249
0.615618
0.543918
0.569873
0.694455
0.87711
1.096425
1.318986
1.526946
1.6817
1.763781
1.777083
1.72193
1.607081
1.428643
1.213545
0.994554
0.793082
0.596476
0.383325
0.215269
0.130593
0.145192
0.304488
0.607831
1.016291
1.442594
1.754373
1.888363
1.889337
1.792332
1.620058
1.403013
1.143468
0.830716
0.503689
0.239277
0.102367
0.054351
0.179906
0.437505
0.736955
0.977683
1.15093
1.3391
1.540248
1.683322
1.755346
1.712197
1.565229
1.402364
1.261886
1.162934
1.126273
1.136979
1.180453
1.268699
1.366353
1.437403
1.452003
1.431563
1.376086
1.287516
1.191159
1.079555
0.96795
0.872243
0.797624
0.75999
0.75999
0.825525
0.926423
1.05652
1.221656
1.391334
1.53311
1.63044
1.689811
1.689162
1.634333
1.542195
1.389712
1.207705
1.022779
0.862835
0.741822
0.679855
0.684722
0.733711
0.832338
0.970546
1.127895
1.282325
1.410475
1.489961
1.483472
1.409502
1.275187
1.085719
0.888465
0.703214
0.535483
0.371645
0.234411
0.162062
0.166604
0.249659
0.440425
0.681153
0.905335
1.147037
1.370246
1.523702
1.608379
1.599619
1.473415
1.277134
1.057169
0.833311
0.653576
0.552354
0.537754
0.626
0.860888
1.172018
1.469197
1.696624
1.837428
1.865329
1.806931
1.676185
1.47893
1.271618
1.078257
0.940374
0.861537
0.834609
0.878083
0.966653
1.100319
1.272592
1.452327
1.612921
1.729392
1.790385
1.778057
1.711872
1.592157
1.40496
1.204786
1.020508
0.869972
0.763559
0.729169
0.754799
0.819361
0.938427
1.087341
1.242744
1.366028
1.438376
1.444541
1.357593
1.221656
1.05944
0.886843
0.729169
0.600045
0.5118
0.478383
0.527697
0.643194
0.801517
1.006558
1.204461
1.37641
1.5104
1.605783
1.634658
1.590859
1.508454
1.372517
1.218736
1.059116
0.906308
0.778807
0.664931
0.570197
0.514071
0.523804
0.590637
0.733711
1.00234
1.304711
1.53311
1.66483
1.701815
1.65607
1.516889
1.344291
1.1678
1.022131
0.914419
0.864457
0.868999
0.915393
1.021806
1.144766
1.257668
1.336505
1.35662
1.264805
1.090261
0.916366
0.77102
0.675638
0.65974
0.71684
0.790162
0.875163
0.967302
1.06236
1.162934
1.293031
1.427021
1.551279
1.668723
1.744316
1.74464
1.668074
1.508454
1.269023
0.990012
0.73436
0.546838
0.458268
0.50304
0.64287
0.80833
1.012073
1.245664
1.458816
1.657368
1.82153
1.895176
1.862084
1.772866
1.642444
1.444541
1.220683
1.014669
0.847262
0.734035
0.69705
0.734035
0.818063
0.957893
1.126273
1.306333
1.443567
1.492881
1.461087
1.365379
1.23658
1.066902
0.861537
0.665256
0.51472
0.43718
0.43718
0.575713
0.778158
0.991634
1.233984
1.461411
1.648608
1.791034
1.871168
1.836779
1.627196
1.301466
0.929343
0.572144
0.30611
0.22338
0.335309
0.544567
0.81125
1.050681
1.244042
1.432212
1.592157
1.742045
1.857867
1.913345
1.883821
1.800767
1.659314
1.446812
1.207381
0.972168
0.774914
0.591285
0.375863
0.176013
0.071222
0.030019
0.013797
0.111451
0.532563
0.997474
1.414044
1.703113
1.883497
1.930539
1.847485
1.706681
1.548683
1.408853
1.311199
1.267725
1.25053
1.257019
1.306333
1.380952
1.472442
1.566527
1.651204
1.687864
1.674238
1.605783
1.472442
1.310875
1.145739
0.998447
0.8969
0.844991
0.849533
0.895927
0.984496
1.114269
1.256695
1.382574
1.479579
1.548034
1.552901
1.500992
1.415017
1.269996
1.108105
0.956595
0.823903
0.724302
0.705161
0.747013
0.817739
0.932912
1.08215
1.240149
1.371219
1.4533
1.480553
1.437079
1.351429
1.222629
1.070146
0.92545
0.808979
0.722356
0.669473
0.648385
0.610102
0.568575
0.559167
0.581228
0.643519
0.825849
1.092208
1.315417
1.449083
1.490285
1.443892
1.357268
1.259615
1.148983
1.048085
0.972492
0.936481
0.911824
0.841747
0.738902
0.661687
0.614969
0.577659
0.584472
0.673691
0.881003
1.128869
1.288165
1.381276
1.405609
1.376086
1.340722
1.344291
1.370895
1.390685
1.436754
1.496774
1.559714
1.610325
1.652826
1.66483
1.644066
1.608379
1.524026
1.373814
1.204461
1.063333
0.949782
0.873216
0.86251
0.87711
0.906308
0.992283
1.108105
1.245015
1.394903
1.532786
1.623303
1.651528
1.594104
1.425399
1.209003
1.00526
0.851804
0.743768
0.679531
0.68018
0.723653
0.824227
0.968599
1.118487
1.245664
1.329367
1.349482
1.297897
1.209003
1.091234
0.939725
0.796651
0.681477
0.604263
0.607183
0.678882
0.791135
0.92837
1.080853
1.220034
1.355971
1.470495
1.505858
1.442918
1.265779
1.019211
0.732738
0.420634
0.184448
0.075115
0.031965
0.089714
0.419012
0.765505
1.11362
1.414044
1.645364
1.83029
1.961361
2.021705
2.006781
1.928268
1.81342
1.654772
1.461411
1.262534
1.080528
0.917664
0.804761
0.764856
0.749608
0.75123
0.808006
0.911499
1.043219
1.190835
1.396525
1.591833
1.702788
1.703113
1.591833
1.422155
1.241771
1.087341
0.960489
0.890087
0.890087
0.934858
1.017264
1.125624
1.247935
1.354673
1.429617
1.444865
1.388414
1.29076
1.167476
1.030566
0.89982
0.795353
0.733386
0.694455
0.700619
0.725924
0.767452
0.848235
0.943943
1.061062
1.202515
1.349482
1.458816
1.526946
1.56458
1.530515
1.411124
1.204786
0.94816
0.679855
0.444318
0.285671
0.174391
0.181853
0.40863
0.787242
1.17072
1.490285
1.715766
1.827695
1.860138
1.816988
1.68462
1.523053
1.343318
1.167151
1.001042
0.870945
0.796651
0.771994
0.816765
0.916366
1.063658
1.234309
1.401391
1.535706
1.592481
1.574962
1.477633
1.297249
1.084746
0.883598
0.724627
0.634435
0.629893
0.688939
0.791135
0.941023
1.110376
1.275836
1.415666
1.521106
1.572367
1.565554
1.521431
1.422479
1.282974
1.144766
1.016615
0.899495
0.80249
0.775887
0.815143
0.919286
1.071769
1.226522
1.361811
1.465953
1.532137
1.523702
1.449083
1.307306
1.09091
0.864457
0.664931
0.555273
0.554949
0.645465
0.757719
0.882625
1.051978
1.243393
1.408853
1.53603
1.617463
1.640173
1.577233
1.405284
1.141521
0.8398
0.56598
0.34342
0.201643
0.212349
0.350557
0.515044
0.660389
0.832338
1.049058
1.306333
1.559065
1.755022
1.865653
1.874413
1.810175
1.672616
1.473739
1.25929
1.071769
0.9394
0.841098
0.791135
0.795677
0.87127
0.979954
1.091234
1.192782
1.295951
1.382574
1.398796
1.360837
1.318986
1.244691
1.161312
1.075986
1.006882
0.974764
0.969248
1.002016
1.045165
1.115891
1.231389
1.378681
1.517213
1.619734
1.627845
1.53311
1.401067
1.243069
1.048734
0.866728
0.713272
0.604911
0.562735
0.582526
0.622755
0.663309
0.714569
0.769074
0.846289
0.977359
1.171369
1.379654
1.560038
1.705708
1.756968
1.674563
1.52792
1.370246
1.228794
1.129517
1.089612
1.089288
1.138926
1.22782
1.308928
1.360513
1.355971
1.319959
1.273565
1.239175
1.226847
1.233011
1.233011
1.209652
1.172342
1.119136
1.058142
1.030566
1.041272
1.099345
1.195377
1.311848
1.423453
1.515267
1.563607
1.564256
1.530191
1.41891
1.211599
0.966004
0.731764
0.539701
0.406684
0.362886
0.397275
0.49428
0.671744
0.902091
1.165854
1.402364
1.565554
1.632387
1.606756
1.552576
1.46206
1.31931
1.14801
0.987092
0.857968
0.772643
0.759665
0.804437
0.899171
1.031215
1.145739
1.230091
1.281676
1.314119
1.32515
1.32223
1.317363
1.244691
1.11654
0.970221
0.830391
0.698672
0.587068
0.53451
0.540025
0.625351
0.802815
1.072093
1.379979
1.658341
1.859813
1.884795
1.766377
1.600268
1.418586
1.240473
1.026997
0.808979
0.647088
0.547812
0.476761
0.467028
0.549109
0.70581
0.932587
1.178507
1.432537
1.653475
1.758915
1.773839
1.688513
1.532786
1.368299
1.216465
1.106807
1.032837
1.019535
1.043867
1.09675
1.179155
1.268699
1.379979
1.495476
1.583722
1.611947
1.581126
1.501965
1.350131
1.151254
0.917339
0.676286
0.447238
0.288266
0.252579
0.344717
0.57993
0.905011
1.229442
1.489637
1.680078
1.786816
1.802713
1.769946
1.674238
1.502614
1.305359
1.110052
0.924477
0.772643
0.705161
0.700294
0.736955
0.86543
1.082799
1.334883
1.549656
1.70441
1.77903
1.770919
1.68754
1.53603
1.331314
1.126598
0.950756
0.826498
0.763234
0.770047
0.828445
0.935183
1.073391
1.218087
1.36473
1.476335
1.53311
1.531813
1.509751
1.449732
1.325474
1.140873
0.902091
0.619835
0.332389
0.138379
0.056622
0.024828
0.093932
0.472868
0.893007
1.257992
1.524351
1.673914
1.709601
1.694029
1.658017
1.594104
1.517538
1.405284
1.243717
1.052952
0.874514
0.735982
0.672718
0.728844
0.877434
1.111998
1.388738
1.617463
1.702464
1.672941
1.579829
1.408529
1.19927
1.008829
0.864781
0.743444
0.662011
0.662011
0.733386
0.893007
1.129193
1.369597
1.570096
1.728418
1.830614
1.854298
1.803687
1.706681
1.547061
1.367326
1.192782
1.036406
0.911175
0.831365
0.823254
0.868674
0.966004
1.105834
1.257668
1.393929
1.498072
1.569122
1.573989
1.519484
1.419884
1.264481
1.094479
0.931614
0.783998
0.651305
0.559167
0.505635
0.523155
0.628595
0.770047
0.915068
1.075662
1.213545
1.305359
1.372841
1.405933
1.358242
1.255397
1.142819
1.023104
0.88814
0.744742
0.664607
0.660389
0.727547
0.866728
1.03673
1.209976
1.335207
1.380303
1.31931
1.213545
1.067551
0.854724
0.630866
0.479681
0.426474
0.451455
0.544892
0.726573
0.975088
1.245988
1.506183
1.743342
1.924375
2.035331
2.072641
2.032736
1.948383
1.818286
1.61876
1.397822
1.197324
1.038677
0.908904
0.857644
0.890411
0.968275
1.096101
1.240473
1.389387
1.520133
1.621031
1.668399
1.6392
1.574962
1.463682
1.304386
1.120758
0.958218
0.854075
0.800544
0.803139
0.814819
0.821307
0.867701
0.947836
1.037054
1.121082
1.154174
1.120433
1.057494
0.978981
0.876461
0.772643
0.70581
0.676286
0.667851
0.697699
0.798597
0.929019
1.082475
1.26805
1.432537
1.551603
1.626222
1.653799
1.604485
1.507805
1.373166
1.174289
0.963733
0.797299
0.69705
0.647736
0.65163
0.716516
0.837853
1.023753
1.229118
1.411773
1.546412
1.617138
1.629142
1.581775
1.458491
1.257343
1.010127
0.773291
0.562735
0.414146
0.394031
0.521533
0.699646
0.91669
1.188888
1.422155
1.594753
1.722903
1.811149
1.823153
1.748533
1.63336
1.479255
1.304711
1.123029
0.930641
0.723653
0.542296
0.425825
0.354775
0.38008
0.536132
0.775563
1.036406
1.288489
1.511698
1.662883
1.72485
1.715117
1.595077
1.397174
1.171369
0.96276
0.793082
0.707756
0.733062
0.867377
1.090261
1.315417
1.506183
1.645364
1.736205
1.77611
1.750804
1.671967
1.538626
1.367975
1.171045
0.979306
0.824227
0.721707
0.692508
0.70873
0.760314
0.845315
0.926099
1.00818
1.100319
1.180453
1.260588
1.334883
1.381276
1.338776
1.226198
1.08215
0.924477
0.768425
0.656496
0.582526
0.516017
0.504013
0.586743
0.717165
0.878083
1.089288
1.299844
1.416964
1.451354
1.392307
1.257343
1.130815
1.048085
0.995527
0.968924
0.970221
0.998771
1.063982
1.170396
1.300168
1.435781
1.541546
1.61357
1.634333
1.591184
1.520458
1.419884
1.275836
1.124327
0.979306
0.838827
0.716192
0.652279
0.628919
0.644168
0.740848
0.909228
1.129517
1.3537
1.557443
1.697597
1.742045
1.708304
1.589237
1.427021
1.264481
1.111998
0.987416
0.905335
0.882949
0.890411
0.944916
1.054898
1.185969
1.311199
1.415017
1.490285
1.509751
1.482175
1.398796
1.238526
1.03381
0.809303
0.592583
0.359641
0.153303
0.061489
0.02645
0.012499
0.092958
0.446264
0.852453
1.282974
1.635306
1.826072
1.89907
1.87052
1.745938
1.591184
1.451029
1.323203
1.197648
1.113296
1.072093
1.078257
1.135682
1.221007
1.312172
1.392307
1.463033
1.512996
1.526622
1.487041
1.340074
1.090586
0.789513
0.466704
0.21462
0.112749
0.215269
0.410901
0.648385
0.908904
1.170396
1.419559
1.624925
1.775785
1.833534
1.820233
1.732636
1.561012
1.330665
1.057169
0.798597
0.600369
0.484223
0.525101
0.684073
0.866403
1.029592
1.201217
1.343967
1.446163
1.502289
1.537653
1.575935
1.569447
1.483148
1.341371
1.166178
0.981577
0.78854
0.592908
0.413172
0.315843
0.367752
0.523479
0.713272
0.929992
1.162934
1.357593
1.486068
1.562634
1.568798
1.482824
1.310875
1.08799
0.914744
0.846289
0.852128
0.904686
1.044516
1.222954
1.379979
1.493205
1.577882
1.619085
1.590859
1.543492
1.466602
1.336505
1.158067
0.957893
0.790811
0.665256
0.597125
0.603289
0.639626
0.707432
0.780429
0.892033
1.022131
1.164556
1.320283
1.422155
1.416639
1.270645
1.063982
0.854075
0.660389
0.530941
0.510826
0.622431
0.84272
1.085395
1.346238
1.584695
1.764106
1.886092
1.959738
1.960387
1.884795
1.742369
1.497747
1.121731
0.682775
0.310976
0.123455
0.050782
0.023206
0.036183
0.36905
0.82001
1.286867
1.687216
1.977582
2.127794
2.132661
2.052201
1.918211
1.708953
1.420208
1.133411
0.898847
0.747337
0.703214
0.744417
0.83396
0.962435
1.096425
1.23074
1.376734
1.515591
1.611299
1.629142
1.597997
1.515267
1.361162
1.175911
0.996825
0.84564
0.74539
0.719111
0.748959
0.82293
0.955622
1.110376
1.271618
1.40496
1.492232
1.517213
1.465304
1.361811
1.211599
1.023753
0.822605
0.658767
0.546189
0.489414
0.505635
0.570846
0.661687
0.764207
0.870297
0.962111
1.032512
1.074364
1.1253
1.186617
1.21679
1.13114
0.909553
0.621133
0.373916
0.230842
0.225975
0.431665
0.745715
1.091234
1.406907
1.65315
1.816339
1.913993
1.955845
1.921131
1.847485
1.731338
1.555496
1.360513
1.169747
0.993581
0.847586
0.74247
0.657794
0.620484
0.673367
0.778482
0.941023
1.171369
1.413071
1.586966
1.680403
1.697273
1.609676
1.446163
1.25345
1.072093
0.921881
0.810277
0.759016
0.749284
0.798597
0.898847
1.021806
1.128869
1.18532
1.203812
1.174289
1.106158
1.022779
0.930641
0.841747
0.779456
0.766803
0.778807
0.812548
0.885545
0.984172
1.112647
1.254424
1.387116
1.505209
1.587615
1.602539
1.506183
1.282974
0.962435
0.601667
0.28048
0.113073
0.046565
0.060515
0.408955
0.810926
1.130491
1.395876
1.57626
1.684945
1.768324
1.840672
1.869222
1.827695
1.726796
1.567176
1.355971
1.114594
0.883923
0.696401
0.580904
0.562411
0.620809
0.733711
0.883598
1.041272
1.183373
1.301466
1.400093
1.432212
1.394578
1.324176
1.185969
1.0111
0.837205
0.714245
0.652603
0.635084
0.678882
0.755448
0.87419
1.031539
1.203812
1.380952
1.514942
1.576909
1.562309
1.477308
1.32223
1.119136
0.914744
0.756097
0.701917
0.715543
0.783673
0.890736
1.030241
1.207381
1.382574
1.526946
1.608379
1.561985
1.391658
1.157094
0.918961
0.687317
0.509204
0.4547
0.474814
0.510502
0.642546
0.860239
1.06528
1.234633
1.386792
1.51916
1.635306
1.711224
1.738151
1.695975
1.600268
1.450705
1.216141
0.951404
0.696077
0.503364
0.400844
0.387867
0.441074
0.533861
0.660389
0.806059
0.955622
1.129193
1.326447
1.481526
1.512671
1.423777
1.252153
1.030241
0.827796
0.703539
0.658767
0.701917
0.865106
1.053925
1.204786
1.361811
1.504885
1.620058
1.704086
1.773514
1.790709
1.70441
1.57918
1.426697
1.25053
1.084746
0.936156
0.816441
0.737604
0.733062
0.783024
0.893331
1.067551
1.273565
1.466926
1.62168
1.728094
1.745289
1.685593
1.569771
1.381276
1.175911
0.985145
0.826823
0.711974
0.652603
0.679855
0.739551
0.843369
0.984172
1.147686
1.314443
1.461735
1.575287
1.614543
1.588264
1.493854
1.34202
1.1678
0.993905
0.847911
0.752203
0.720734
0.735009
0.768425
0.827472
0.907282
0.988714
1.015642
0.960164
0.875487
0.806384
0.77686
0.780429
0.809303
0.875163
0.881003
0.797624
0.651305
0.521208
0.469624
0.55722
0.802815
1.091559
1.309577
1.473091
1.643742
1.749831
1.769297
1.728094
1.622654
1.48185
1.330665
1.172991
1.011424
0.873216
0.778807
0.719111
0.719436
0.781727
0.881652
1.017264
1.184995
1.364406
1.490934
1.551279
1.545439
1.453949
1.327421
1.204461
1.109078
1.038677
1.017264
1.050681
1.095777
1.193755
1.348833
1.519484
1.666452
1.772541
1.82445
1.814068
1.756644
1.623627
1.431563
1.235282
1.066902
0.944916
0.861861
0.842071
0.876461
0.958542
1.080528
1.214843
1.335856
1.435132
1.508129
1.521431
1.469846
1.389387
1.254424
1.073066
0.832662
0.528346
0.230517
0.091336
0.037805
0.016717
0.101394
0.554949
1.022131
1.403662
1.65607
1.79006
1.82737
1.802389
1.712197
1.553225
1.361162
1.137304
0.854724
0.50888
0.217865
0.087119
0.036507
0.017366
0.240899
0.67142
1.071444
1.331963
1.508454
1.587615
1.59605
1.552576
1.562309
1.5821
1.571393
1.494503
1.364406
1.247611
1.11654
0.969248
0.904037
0.927072
1.022455
1.167476
1.349158
1.520458
1.657692
1.731338
1.708304
1.616814
1.482824
1.342669
1.222629
1.143468
1.117513
1.134384
1.207705
1.327096
1.461411
1.584695
1.676834
1.72485
1.701815
1.627196
1.511698
1.347536
1.171694
1.002989
0.848235
0.738577
0.703539
0.73144
0.805735
0.940049
1.10778
1.275187
1.414044
1.521755
1.562309
1.525
1.437079
1.29368
1.11362
0.929992
0.773616
0.664282
0.603289
0.597125
0.62308
0.649683
0.698997
0.77102
0.853751
0.952378
1.148334
1.386467
1.538301
1.558092
1.446487
1.258966
1.060089
0.875163
0.738577
0.659092
0.595503
0.525426
0.440749
0.3405
0.316492
0.42907
0.701268
1.121082
1.488339
1.691758
1.73588
1.621031
1.43059
1.226198
1.035757
0.857968
0.688615
0.512448
0.352504
0.227273
0.148112
0.213971
0.4547
0.834609
1.248908
1.615841
1.874737
2.025274
1.966227
1.788114
1.626547
1.501641
1.408853
1.372192
1.369597
1.391334
1.453949
1.542519
1.64731
1.729392
1.7959
1.83613
1.759239
1.591508
1.374463
1.144441
0.941671
0.808979
0.755448
0.77978
0.858941
0.97379
1.133086
1.326447
1.499694
1.632387
1.723552
1.769946
1.745938
1.672292
1.552576
1.381276
1.194728
1.017913
0.868999
0.768749
0.73436
0.740848
0.768749
0.843693
0.941347
1.047436
1.153525
1.222305
1.20511
1.108754
0.976386
0.743444
0.410901
0.166929
0.067004
0.029045
0.013148
0.084199
0.421932
0.805735
1.25053
1.660937
1.956494
2.146611
2.177432
2.013919
1.728743
1.362135
0.867377
0.383974
0.150707
0.062137
0.027748
0.125726
0.436532
0.704836
0.937778
1.202515
1.490934
1.755995
1.976609
2.157317
2.24751
2.213444
2.12163
1.966876
1.768324
1.555496
1.363108
1.205759
1.106158
1.071769
1.089612
1.172667
1.291409
1.4108
1.508454
1.586966
1.632387
1.628169
1.569771
1.443243
1.271943
1.08507
0.923828
0.806708
0.724302
0.715867
0.764207
0.859915
1.014993
1.189213
1.344291
1.464007
1.549008
1.584695
1.565878
1.502614
1.369921
1.186617
0.987741
0.823903
0.714245
0.661687
0.684073
0.736306
0.833636
0.974115
1.137304
1.277783
1.384845
1.473415
1.516564
1.486392
1.360513
1.131788
0.829418
0.461837
0.184124
0.073817
0.030992
0.014446
0.115993
0.619186
1.133735
1.543817
1.817313
1.991533
2.092431
2.076209
1.946437
1.693704
1.322554
0.86835
0.386893
0.151356
0.061813
0.027099
0.175689
0.64287
1.130815
1.544141
1.83613
2.050904
2.182948
2.220906
2.183921
2.081076
1.859813
1.528244
1.181751
0.897224
0.670447
0.480005
0.362561
0.310328
0.334984
0.462486
0.676286
0.961786
1.281351
1.603837
1.856245
1.969147
1.960063
1.816664
1.558092
1.268374
1.021482
0.832014
0.730467
0.71976
0.776211
0.909553
1.086044
1.278432
1.459789
1.622978
1.757293
1.811149
1.789736
1.692406
1.525649
1.332612
1.151579
0.992607
0.854724
0.779131
0.73728
0.710676
0.760314
0.855697
0.994878
1.158392
1.294329
1.365379
1.367326
1.233336
0.993256
0.775887
0.566953
0.377161
0.297999
0.386569
0.551705
0.748635
0.869323
0.917988
0.984172
1.088315
1.205759
1.330665
1.431563
1.561985
1.607081
1.512022
1.368948
1.222954
1.113945
1.038677
1.009802
1.020184
1.030566
1.073715
1.13925
1.122055
1.045814
0.993581
0.993905
1.062036
1.215492
1.368624
1.468549
1.461087
1.397498
1.309901
1.22198
1.177858
1.172018
1.210301
1.307955
1.438376
1.565229
1.659314
1.71901
1.726472
1.680403
1.593455
1.44746
1.269023
1.087341
0.935183
0.822281
0.760639
0.764856
0.807681
0.89106
1.025699
1.184022
1.329692
1.452003
1.529866
1.531164
1.465629
1.347211
1.172018
0.981252
0.800544
0.65455
0.544243
0.4547
0.382676
0.341797
0.351855
0.398249
0.478708
0.600045
0.766803
0.968275
1.171694
1.368948
1.501965
1.486392
1.319959
1.061387
0.732413
0.346664
0.135459
0.054676
0.025152
0.323305
0.844018
1.362784
1.780976
2.008403
2.106057
2.069072
1.923726
1.72193
1.525
1.352402
1.229118
1.154499
1.11654
1.124975
1.131464
1.151254
1.218736
1.302115
1.298222
1.169423
1.026348
0.890087
0.818387
0.895278
1.033486
1.165854
1.254748
1.274863
1.253775
1.23658
1.24534
1.269347
1.337803
1.444865
1.584046
1.692082
1.708628
1.605459
1.392956
1.16488
0.965679
0.810601
0.716516
0.736306
0.817414
0.896575
0.985794
1.08799
1.175911
1.261886
1.292382
1.244366
1.144117
1.001691
0.84856
0.726898
0.679531
0.660714
0.642221
0.682126
0.821307
1.000394
1.194079
1.34786
1.39328
1.334558
1.199919
1.06236
0.98255
0.982225
0.992932
0.98255
0.971195
0.997798
1.011749
1.042245
1.081502
1.116216
1.04257
0.926423
0.84856
0.835258
0.901118
1.040623
1.233011
1.442918
1.632062
1.764755
1.813095
1.782923
1.6817
1.500343
1.292058
1.105509
0.972168
0.892033
0.875487
0.916366
0.996176
1.12822
1.288165
1.452976
1.593455
1.6963
1.740422
1.723876
1.666128
1.552576
1.380628
1.179804
1.007207
0.89106
0.823903
0.820983
0.86543
0.963084
1.117189
1.282325
1.430266
1.549656
1.61876
1.615192
1.543817
1.430266
1.260263
1.066253
0.893656
0.77102
0.692832
0.661687
0.677584
0.69413
0.732413
0.762585
0.795353
0.831689
0.842071
0.838502
0.839476
0.881652
0.968275
1.023428
0.968275
0.872568
0.785944
0.776211
0.917339
1.129842
1.309253
1.426372
1.484446
1.491259
1.373814
1.212896
1.094479
1.063982
1.130166
1.199595
1.241122
1.255721
1.221656
1.180453
1.165205
1.181751
1.205434
1.246962
1.333585
1.456545
1.581451
1.691109
1.769946
1.785194
1.744316
1.66483
1.525324
1.347211
1.143468
0.961786
0.808655
0.720409
0.717165
0.767127
0.867377
1.014344
1.185644
1.351429
1.488988
1.579504
1.599943
1.571393
1.49353
1.356944
1.195377
1.029592
0.876785
0.756421
0.696401
0.693157
0.742795
0.864781
1.032512
1.19635
1.319634
1.395876
1.369272
1.226522
1.023428
0.709378
0.324278
0.12605
0.051756
0.022557
0.013148
0.410253
0.955622
1.398796
1.731663
1.949357
2.042144
2.079454
2.082698
2.030789
1.943841
1.804984
1.578531
1.325799
1.092532
0.913122
0.785944
0.71684
0.692832
0.649359
0.619186
0.586094
0.575388
0.62308
0.775238
1.015642
1.317363
1.613245
1.762159
1.740747
1.597024
1.395551
1.191159
1.048734
0.998123
1.017588
1.066253
1.163907
1.290436
1.381601
1.377059
1.280703
1.13925
1.0111
0.934858
0.919286
0.988065
1.073391
1.119136
1.099994
1.062684
1.057818
1.086368
1.163583
1.30763
1.47893
1.63044
1.737503
1.791683
1.788114
1.721281
1.616814
1.451678
1.264481
1.088639
0.941347
0.824876
0.757394
0.752203
0.793731
0.889438
1.028295
1.181426
1.330665
1.445514
1.518187
1.503912
1.417613
1.251504
0.99942
0.69413
0.397275
0.170498
0.068626
0.029045
0.013797
0.006984
0.010553
0.404088
0.961462
1.404311
1.614543
1.670994
1.581451
1.475686
1.432212
1.381925
1.302764
1.189213
1.021157
0.802815
0.544892
0.341473
0.263609
0.350882
0.591285
0.979954
1.410475
1.783247
1.975636
2.036953
2.00451
1.83905
1.594104
1.317363
1.071444
0.887167
0.796975
0.810926
0.896575
1.028944
1.206083
1.402689
1.569447
1.674563
1.725174
1.712846
1.655746
1.551928
1.394903
1.220358
1.052952
0.915068
0.813845
0.768749
0.778482
0.83104
0.948485
1.096101
1.249233
1.38517
1.480553
1.513645
1.470171
1.375112
1.204137
0.92545
0.547163
0.227273
0.090039
0.037481
0.017366
0.00958
0.006335
0.162062
0.401493
0.662011
0.996176
1.394903
1.663856
1.772217
1.760537
1.671967
1.539924
1.405284
1.276809
1.106158
0.909877
0.709703
0.481627
0.302866
0.257445
0.367103
0.62308
1.023104
1.461735
1.79882
1.920158
1.880901
1.76151
1.61357
1.457518
1.315417
1.203163
1.146712
1.14217
1.17364
1.267401
1.388089
1.508129
1.609028
1.679105
1.695002
1.660288
1.585993
1.468873
1.308279
1.132437
0.973141
0.835582
0.7256
0.675962
0.692184
0.767127
0.895278
1.043543
1.17948
1.288813
1.377059
1.420857
1.420857
1.37933
1.266752
1.118162
0.969248
0.846937
0.748959
0.694455
0.698348
0.748959
0.854724
1.006882
1.183698
1.341696
1.425399
1.420857
1.323852
1.145415
0.929668
0.721058
0.576362
0.488765
0.463784
0.489414
0.561762
0.658443
0.764856
0.887167
0.942645
0.893007
0.803788
0.809303
0.952053
1.166503
1.405284
1.635631
1.725823
1.626222
1.491259
1.386467
1.328718
1.341047
1.379005
1.424101
1.453949
1.413071
1.297573
1.085719
0.827147
0.569224
0.328496
0.216242
0.325251
0.570522
0.853102
1.129193
1.349482
1.456869
1.517538
1.574313
1.648933
1.7388
1.830614
1.89907
1.936379
1.938326
1.880577
1.782274
1.662234
1.486717
1.284271
1.081826
0.907931
0.78854
0.749284
0.801841
0.91377
1.079879
1.241446
1.406907
1.556145
1.664505
1.716414
1.696624
1.623627
1.495801
1.332936
1.159041
1.004936
0.884572
0.813521
0.814819
0.867052
0.965679
1.123678
1.301142
1.461735
1.584695
1.662234
1.671643
1.606432
1.474388
1.254099
1.003962
0.753826
0.540025
0.410577
0.3976
0.438154
0.49428
0.538727
0.580255
0.653576
0.789837
1.035108
1.348184
1.592481
1.71317
1.687216
1.504885
1.270645
0.987741
0.687966
0.456971
0.318763
0.255174
0.321034
0.538727
0.842071
1.147361
1.442594
1.714792
1.913993
1.98472
1.950005
1.838076
1.695975
1.54479
1.396849
1.258641
1.166827
1.138277
1.147037
1.198297
1.299195
1.405609
1.502938
1.586966
1.641146
1.638551
1.592806
1.517862
1.391009
1.233336
1.061387
0.907606
0.803139
0.759341
0.78854
0.858941
0.966004
1.102914
1.255397
1.391009
1.500667
1.570096
1.579504
1.540248
1.449407
1.294004
1.117838
0.953027
0.829094
0.760639
0.760314
0.810601
0.870297
0.976061
1.099345
1.228145
1.347536
1.449407
1.5104
1.514293
1.464007
1.33618
1.121082
0.815468
0.475788
0.204239
0.080955
0.033912
0.015744
0.010553
0.285671
0.676286
1.056845
1.371868
1.595401
1.721281
1.798171
1.834832
1.784221
1.653799
1.467575
1.287516
1.119136
0.958866
0.852128
0.79957
0.821956
0.934534
1.123353
1.375761
1.615841
1.789412
1.865653
1.839699
1.714792
1.513969
1.291409
1.070146
0.884572
0.743119
0.682126
0.698023
0.761936
0.901442
1.081177
1.260912
1.401067
1.499045
1.520458
1.422804
1.267401
1.092857
0.905335
0.748959
0.670447
0.649683
0.689913
0.783998
0.889762
1.007856
1.149957
1.254748
1.290436
1.269996
1.222629
1.147686
1.091883
1.102914
1.153201
1.219061
1.219061
1.163907
1.112971
1.096101
1.118487
1.151254
1.15677
1.114918
1.021157
0.923179
0.896251
0.964057
1.078582
1.254748
1.419884
1.466602
1.435457
1.326123
1.167476
0.993256
0.856995
0.78562
0.751555
0.727222
0.692832
0.652927
0.595827
0.561762
0.600045
0.712947
0.881003
1.092532
1.304386
1.445189
1.46206
1.397822
1.306333
1.249882
1.224251
1.215816
1.230091
1.267076
1.317688
1.371219
1.413395
1.466602
1.519809
1.560687
1.534733
1.412097
1.282649
1.191808
1.130166
1.08799
1.086692
1.127895
1.199919
1.294329
1.394578
1.486068
1.56166
1.606432
1.581775
1.49937
1.373814
1.203812
1.030566
0.873216
0.744417
0.646439
0.599721
0.621458
0.692508
0.80249
0.93421
1.061062
1.165205
1.243069
1.296924
1.323528
1.343642
1.325474
1.224251
1.063009
0.866079
0.684073
0.546189
0.495254
0.513097
0.573766
0.653576
0.720409
0.770047
0.765181
0.724951
0.74539
0.869972
1.05944
1.261561
1.367001
1.390685
1.346562
1.260912
1.171694
1.109078
1.049383
1.020833
1.068849
1.17656
1.315092
1.47082
1.623951
1.702139
1.687864
1.574962
1.354997
1.122055
0.905984
0.741497
0.670447
0.711001
0.834609
1.003962
1.206083
1.416639
1.594753
1.718037
1.733609
1.5821
1.348509
1.129193
0.974764
0.928045
0.970221
1.069173
1.148983
1.13114
1.098048
1.063658
1.051005
1.097074
1.171694
1.263183
1.363433
1.454598
1.510725
1.509103
1.455896
1.351104
1.206732
1.058142
0.923828
0.828769
0.774914
0.768749
0.793082
0.849857
0.958542
1.106158
1.275512
1.441945
1.578855
1.640497
1.643417
1.603188
1.47893
1.327096
1.196999
1.105509
1.017264
0.94816
0.92545
0.955298
1.040299
1.162934
1.311848
1.443243
1.517538
1.47601
1.319634
1.092532
0.82812
0.584472
0.457944
0.464108
0.518288
0.628919
0.761936
0.817739
0.800868
0.812872
0.819361
0.85667
0.956271
1.08215
1.207705
1.302115
1.403338
1.511049
1.542843
1.480877
1.404311
1.331638
1.263832
1.252153
1.294004
1.377383
1.479255
1.560363
1.626547
1.679754
1.701491
1.665803
1.591184
1.488988
1.355646
1.213545
1.079879
0.969248
0.882949
0.849533
0.874839
0.939725
1.039001
1.158716
1.283947
1.388089
1.463033
1.515591
1.523378
1.492557
1.413395
1.278107
1.128869
1.000069
0.898198
0.808979
0.751555
0.687966
0.626973
0.611725
0.650656
0.739875
0.909553
1.151579
1.39912
1.561012
1.625574
1.584695
1.464331
1.305035
1.154823
1.039325
0.958866
0.912473
0.891709
0.920908
0.991958
1.070146
1.174613
1.325799
1.4679
1.58502
1.664505
1.666776
1.583722
1.443892
1.23658
0.979954
0.74831
0.607507
0.576037
0.656496
0.823903
1.028944
1.245988
1.448758
1.62752
1.773839
1.845214
1.811473
1.670021
1.454274
1.195377
0.911499
0.635732
0.366454
0.166929
0.076088
0.124753
0.373592
0.727222
1.110052
1.500343
1.815691
1.993479
2.031438
1.952276
1.779679
1.574313
1.37933
1.198621
1.015317
0.843044
0.738902
0.710352
0.751555
0.879056
1.106483
1.343318
1.555821
1.707979
1.802064
1.842618
1.796225
1.655746
1.476659
1.294978
1.141521
1.023104
0.950756
0.941996
0.987092
1.086044
1.223278
1.377383
1.512671
1.610974
1.662883
1.646662
1.579504
1.459464
1.286542
1.098372
0.919286
0.761936
0.647088
0.606858
0.627946
0.700294
0.83688
0.987741
1.106158
1.160987
1.1253
1.001691
0.819685
0.656172
0.545865
0.558842
0.682775
0.833636
0.949782
1.005585
1.032837
0.979306
0.826498
0.684722
0.611725
0.657469
0.850831
1.096101
1.331963
1.541221
1.65315
1.634333
1.542843
1.4679
1.431563
1.391009
1.335532
1.302115
1.290111
1.335856
1.390685
1.456869
1.500992
1.513969
1.483472
1.408853
1.329043
1.260588
1.192133
1.141197
1.106483
1.088315
1.08799
1.120433
1.17948
1.258966
1.374463
1.504236
1.625249
1.71609
1.769946
1.771568
1.727445
1.641146
1.502938
1.319634
1.133086
0.98547
0.869323
0.786593
0.752852
0.735333
0.758368
0.881652
1.058791
1.214194
1.305359
1.353375
1.359539
1.329043
1.261886
1.14217
0.998771
0.832338
0.650656
0.471895
0.340175
0.302541
0.344069
0.475788
0.698023
0.982225
1.226522
1.378032
1.47893
1.541546
1.558092
1.561336
1.506831
1.381925
1.197324
0.888465
0.496551
0.216242
0.090039
0.08355
0.360615
0.806708
1.303088
1.708628
1.961361
2.099893
2.137527
2.093404
1.953574
1.677807
1.310875
0.943618
0.63995
0.444642
0.41739
0.559167
0.736955
0.907931
1.102265
1.304711
1.482175
1.605134
1.651528
1.648933
1.609352
1.509751
1.387765
1.281351
1.200244
1.106158
1.030241
1.006558
1.019211
1.074364
1.160014
1.251504
1.324501
1.380628
1.391334
1.330016
1.25345
1.161636
1.038352
0.947836
0.921557
0.944916
0.983848
1.038028
1.110052
1.174289
1.201866
1.150605
1.051005
0.95692
0.922206
0.98547
1.171694
1.448758
1.662559
1.743018
1.66775
1.512347
1.341047
1.200244
1.12822
1.115891
1.15969
1.264157
1.367001
1.437079
1.449732
1.374463
1.198621
1.012073
0.856022
0.679206
0.512124
0.374565
0.285671
0.29443
0.425176
0.670447
0.931614
1.171369
1.414693
1.640822
1.804011
1.878955
1.888039
1.824126
1.714143
1.541546
1.299844
1.061062
0.880678
0.746364
0.678233
0.729169
0.883598
1.099345
1.324176
1.511698
1.659639
1.764106
1.824126
1.837428
1.796549
1.72193
1.594104
1.386792
1.157094
0.946862
0.786269
0.694455
0.686993
0.743768
0.835582
0.967626
1.090261
1.21679
1.338776
1.425075
1.43935
1.378357
1.297249
1.172991
1.00526
0.805086
0.637679
0.54035
0.513097
0.578633
0.738577
0.947511
1.169098
1.377059
1.549332
1.686567
1.785843
1.809526
1.767999
1.65315
1.464007
1.24534
0.984821
0.682775
0.443345
0.323305
0.316816
0.419012
0.623729
0.878083
1.106158
1.316066
1.540248
1.754049
1.904585
1.961361
1.90718
1.763133
1.55647
1.324501
1.083773
0.819685
0.582201
0.422581
0.356721
0.448211
0.714245
1.069822
1.461087
1.80174
1.986666
2.026896
1.996724
1.894203
1.731663
1.527271
1.32807
1.137304
0.968275
0.87711
0.839476
0.846613
0.894304
0.975412
1.079879
1.19635
1.313795
1.399769
1.475362
1.488663
1.418586
1.311524
1.206408
1.13633
1.09383
1.082799
1.101616
1.153525
1.261886
1.396525
1.533435
1.653475
1.742369
1.771568
1.725823
1.637578
1.506831
1.336505
1.163583
1.004936
0.866079
0.754799
0.705485
0.710352
0.783998
0.947836
1.136655
1.301791
1.413071
1.473739
1.501316
1.479904
1.409502
1.288489
1.154174
1.03089
0.940374
0.87127
0.788864
0.707432
0.631515
0.644492
0.763559
0.935832
1.114594
1.282325
1.396849
1.399445
1.3391
1.256695
1.153525
1.077608
1.017913
0.965679
0.923828
0.89106
0.831689
0.715543
0.618538
0.609454
0.736955
0.968599
1.25637
1.55063
1.747884
1.832237
1.819259
1.730041
1.597672
1.457193
1.321581
1.203812
1.14217
1.138926
1.18824
1.293355
1.424426
1.55647
1.673265
1.755022
1.777083
1.727121
1.616165
1.444216
1.249557
1.047761
0.859266
0.723329
0.628595
0.588365
0.60556
0.678233
0.808006
0.965355
1.112971
1.247935
1.354673
1.395876
1.394578
1.351753
1.234633
1.078582
0.901766
0.735657
0.599072
0.506933
0.456646
0.46573
0.566953
0.72852
0.954
1.217438
1.452976
1.633684
1.7388
1.788438
1.761835
1.658341
1.492881
1.31347
1.151579
1.018237
0.934534
0.898198
0.908904
1.005585
1.172991
1.368299
1.55063
1.68754
1.751778
1.742369
1.676185
1.51624
1.30244
1.064956
0.84272
0.659416
0.553327
0.553651
0.589663
0.629568
0.689588
0.774589
0.855697
0.944591
1.073391
1.179155
1.245664
1.302764
1.300168
1.241771
1.111998
0.923503
0.739226
0.606534
0.549109
0.60848
0.79957
1.07112
1.359539
1.595401
1.767026
1.87052
1.889012
1.83321
1.71025
1.528244
1.319634
1.110052
0.917339
0.741822
0.639626
0.653252
0.737928
0.901118
1.100643
1.346887
1.622978
1.849756
1.947734
1.930215
1.831912
1.636604
1.402689
1.172342
0.974439
0.820334
0.735009
0.744417
0.831689
0.983199
1.168125
1.31347
1.40496
1.486717
1.561336
1.580802
1.555496
1.481201
1.341371
1.17364
1.011749
0.865754
0.747013
0.686993
0.676935
0.698348
0.762261
0.855373
0.95692
1.038028
1.094154
1.146712
1.186293
1.193755
1.155796
1.078906
0.990985
0.895278
0.816765
0.773291
0.766803
0.783998
0.809952
0.882625
0.970221
1.049058
1.143144
1.238526
1.331963
1.426048
1.496125
1.466602
1.344616
1.196999
1.047761
0.903389
0.759016
0.660714
0.635408
0.696077
0.835582
1.038352
1.234633
1.40204
1.552901
1.634982
1.648284
1.640497
1.569122
1.44227
1.329043
1.247611
1.17948
1.14217
1.155472
1.19927
1.274214
1.347211
1.402364
1.449732
1.483797
1.529542
1.553225
1.557443
1.524026
1.42475
1.280703
1.122704
0.984496
0.876461
0.83396
0.846289
0.904686
1.032512
1.191159
1.343967
1.471144
1.561985
1.590859
1.540248
1.456545
1.339749
1.202839
1.036081
0.866728
0.723329
0.616591
0.594205
0.633786
0.704188
0.788864
0.860888
0.920908
0.964706
1.026348
1.063009
1.049383
0.998123
0.915393
0.841747
0.808655
0.830391
0.915717
1.031215
1.174613
1.316714
1.460762
1.606432
1.721605
1.763781
1.649906
1.402689
1.087017
0.77978
0.537105
0.443993
0.568575
0.799895
0.989039
1.100967
1.195377
1.284271
1.378357
1.512671
1.663208
1.810824
1.931188
2.012621
2.032087
1.980178
1.870844
1.699868
1.486392
1.235931
0.957244
0.657145
0.339202
0.137081
0.055973
0.024179
0.023855
0.297999
0.703214
1.115242
1.453949
1.698571
1.876359
1.966227
1.928268
1.808553
1.665803
1.520782
1.378357
1.27389
1.232038
1.225874
1.278107
1.375761
1.486717
1.572691
1.609352
1.581126
1.472442
1.31347
1.14801
0.980279
0.837529
0.77102
0.768749
0.799246
0.861212
0.953675
1.071444
1.231389
1.394254
1.539599
1.658666
1.74464
1.772217
1.729716
1.63044
1.463358
1.257668
1.054574
0.879381
0.72852
0.628271
0.604587
0.622431
0.675962
0.802815
0.993256
1.175587
1.325474
1.448109
1.510725
1.505534
1.43643
1.295302
1.100967
0.866079
0.647736
0.486494
0.381054
0.353477
0.41447
0.595179
0.88814
1.245015
1.590535
1.850405
1.997048
2.01619
1.938001
1.793305
1.593779
1.364082
1.113296
0.853426
0.59745
0.394355
0.287617
0.324927
0.524777
0.833311
1.168125
1.47082
1.728094
1.89907
1.960712
1.952925
1.864355
1.70733
1.499045
1.275187
1.077933
0.924477
0.880029
0.924801
1.026997
1.179155
1.366028
1.528568
1.658017
1.742369
1.765404
1.736854
1.644066
1.448434
1.169098
0.809628
0.392084
0.153303
0.062137
0.027099
0.013148
0.096852
0.657469
1.245988
1.709601
2.019109
2.191058
2.245239
2.193005
2.001915
1.714143
1.415342
1.134059
0.901442
0.767776
0.748635
0.775887
0.853751
1.01986
1.202839
1.396849
1.581451
1.699544
1.747884
1.715117
1.589886
1.380303
1.158392
0.983199
0.860888
0.78854
0.79957
0.878732
0.983199
1.131464
1.338451
1.569122
1.772866
1.912371
1.975311
1.942219
1.814068
1.610001
1.363433
1.11654
0.895927
0.76583
0.729493
0.762585
0.845964
0.947187
1.063982
1.212572
1.36765
1.493205
1.57042
1.594104
1.547061
1.454274
1.32807
1.171045
1.007531
0.860239
0.772318
0.736306
0.768749
0.855697
0.975088
1.147686
1.340398
1.522404
1.679754
1.795251
1.840023
1.80466
1.713819
1.572367
1.389387
1.178182
0.951404
0.739551
0.575064
0.500445
0.496227
0.5543
0.686019
0.876785
1.09675
1.319959
1.500343
1.558416
1.488988
1.327745
1.107132
0.869648
0.699646
0.677584
0.769723
0.889762
1.018886
1.13114
1.249882
1.389063
1.546412
1.72193
1.886092
1.984071
1.939624
1.816015
1.645364
1.408529
1.13925
0.851804
0.575064
0.355099
0.230842
0.212674
0.335309
0.627622
0.997798
1.365704
1.691758
1.948708
2.090484
2.103786
2.041495
1.89907
1.693055
1.475037
1.278432
1.115891
0.997474
0.940698
0.942969
0.993905
1.099021
1.223603
1.348833
1.474713
1.577233
1.608703
1.564256
1.411124
1.15385
0.867052
0.599721
0.379756
0.233113
0.2117
0.318438
0.492009
0.735333
1.017264
1.288813
1.505209
1.698246
1.852676
1.91886
1.919833
1.842618
1.691109
1.514618
1.334883
1.172018
1.023428
0.927721
0.88814
0.889114
0.982874
1.152876
1.318661
1.406582
1.414044
1.343642
1.223278
1.118487
1.042894
0.982874
0.923828
0.911175
0.914744
0.921557
0.985794
1.083448
1.194404
1.326123
1.4533
1.57042
1.664181
1.702788
1.673589
1.576909
1.424426
1.212247
0.979306
0.735009
0.481303
0.2688
0.137406
0.10626
0.208132
0.434909
0.731115
1.051329
1.362784
1.639524
1.859164
1.968174
1.994777
1.944166
1.807255
1.607405
1.398796
1.208354
1.059116
0.981577
0.975412
1.03089
1.158716
1.323528
1.476984
1.610974
1.709926
1.766377
1.7534
1.686567
1.557443
1.361811
1.124651
0.892682
0.687642
0.546189
0.514071
0.562087
0.68018
0.883274
1.106158
1.313795
1.479904
1.552252
1.458167
1.241771
0.963733
0.646763
0.379756
0.230193
0.24901
0.422905
0.693157
1.003962
1.272592
1.482499
1.663208
1.816664
1.940597
2.028842
2.076209
2.049282
1.957792
1.812771
1.612921
1.397174
1.194079
1.025699
0.899171
0.820659
0.748959
0.634435
0.49136
0.376512
0.370672
0.484547
0.735657
1.073066
1.37641
1.618112
1.725174
1.686567
1.567825
1.43059
1.319959
1.236904
1.200244
1.170071
1.162609
1.201866
1.268699
1.35662
1.441621
1.495801
1.509427
1.491583
1.452651
1.387765
1.306657
1.221332
1.146388
1.092857
1.063009
1.067227
1.084421
1.154823
1.272267
1.404311
1.52792
1.621031
1.67878
1.663532
1.585993
1.462384
1.294329
1.107132
0.906633
0.720085
0.587717
0.565655
0.625351
0.757394
0.980603
1.203488
1.38225
1.502938
1.566203
1.553874
1.424426
1.215816
0.946862
0.629568
0.348286
0.18899
0.200345
0.30903
0.520884
0.804437
1.113296
1.402364
1.623951
1.783896
1.882848
1.902638
1.833859
1.707979
1.528568
1.267401
0.969897
0.730142
0.562411
0.474814
0.446589
0.518613
0.631839
0.789837
0.999745
1.241122
1.504236
1.745289
1.936704
2.047335
2.061934
1.976284
1.744964
1.375761
0.941023
0.50888
0.209105
0.084199
0.054351
0.322007
0.75999
1.234633
1.66483
1.993804
2.177432
2.254972
2.244914
2.179703
2.054797
1.873764
1.673914
1.48185
1.313146
1.182075
1.11946
1.109078
1.13925
1.232038
1.355646
1.485743
1.598321
1.682998
1.708304
1.670021
1.590859
1.452651
1.288489
1.123029
0.971844
0.851804
0.784322
0.780753
0.807681
0.870945
0.975412
1.088315
1.195053
1.295951
1.375112
1.411773
1.42183
1.390036
1.277783
1.094803
0.877758
0.673367
0.499796
0.374565
0.348286
0.455673
0.665905
0.925125
1.186942
1.416964
1.607405
1.729067
1.749182
1.697273
1.556794
1.300817
0.967626
0.657145
0.410577
0.216567
0.1121
0.142597
0.308381
0.575064
0.967626
1.43935
1.829641
2.104759
2.236803
2.225448
2.136554
1.967525
1.68462
1.275187
0.83688
0.452753
0.191586
0.07771
0.033587
0.058244
0.424528
0.893656
1.334558
1.6963
1.951628
2.070045
2.084969
2.035331
1.89615
1.708304
1.499045
1.298546
1.144441
1.06528
1.060089
1.097723
1.175587
1.250855
1.278756
1.246313
1.174938
1.094154
1.017913
0.981901
0.97963
0.995203
0.992932
0.97087
0.95692
0.948809
0.983199
1.062036
1.173316
1.336505
1.511698
1.668723
1.788114
1.861111
1.876035
1.834183
1.752751
1.625898
1.458491
1.275836
1.101292
0.966004
0.886518
0.883274
0.939725
1.040623
1.184346
1.334234
1.465953
1.571393
1.636604
1.636929
1.582749
1.473415
1.306008
1.126598
0.961786
0.833636
0.747013
0.691535
0.655847
0.6114
0.590961
0.59745
0.635408
0.729493
0.921881
1.158716
1.347536
1.51624
1.640497
1.642768
1.545439
1.406907
1.276161
1.149308
1.058142
1.000718
0.955622
0.936156
0.929343
0.919935
0.893007
0.841098
0.774589
0.708081
0.63995
0.556896
0.495902
0.490063
0.540998
0.683748
0.881652
1.080853
1.245015
1.38517
1.594104
1.840996
2.071019
2.237777
2.305907
2.263407
2.125523
1.91302
1.630116
1.329043
1.06236
0.869972
0.758368
0.756745
0.821632
0.936805
1.116865
1.347211
1.571718
1.74464
1.850729
1.89031
1.866302
1.795576
1.683971
1.521755
1.35078
1.211923
1.10778
1.031539
0.994229
0.973466
0.979954
1.0682
1.200244
1.330665
1.439999
1.53311
1.584695
1.574962
1.512671
1.391658
1.241122
1.083448
0.947836
0.832014
0.748635
0.711974
0.710676
0.756421
0.847911
0.969573
1.092208
1.212247
1.341047
1.423128
1.440647
1.367975
1.165529
0.917015
0.685695
0.494929
0.365157
0.379432
0.535159
0.752852
0.992283
1.228469
1.423453
1.562634
1.649581
1.659314
1.588913
1.471144
1.32807
1.179804
1.070471
1.032837
1.029592
1.033486
1.052627
1.100643
1.175262
1.30244
1.445514
1.579829
1.697922
1.77903
1.806931
1.778705
1.71025
1.5821
1.408204
1.218736
1.046787
0.891709
0.772318
0.731764
0.745715
0.801517
0.91085
1.04549
1.157743
1.187591
1.13633
1.049707
0.96276
0.871919
0.772643
0.713272
0.687317
0.699321
0.754474
0.856022
1.029592
1.213221
1.400742
1.559714
1.676185
1.734258
1.729716
1.659314
1.488663
1.194728
0.813521
0.47157
0.234411
0.104962
0.087443
0.234086
0.472868
0.742146
1.000069
1.295302
1.586642
1.803038
1.920807
1.957792
1.955845
1.937677
1.872791
1.726147
1.520458
1.307955
1.098696
0.880678
0.676935
0.530941
0.4401
0.431016
0.537754
0.76291
1.054574
1.377383
1.704735
1.947086
2.04993
2.038575
1.916589
1.729716
1.524026
1.338451
1.1824
1.079879
1.039325
1.04549
1.117513
1.245015
1.39328
1.528244
1.631089
1.689811
1.681051
1.623627
1.526946
1.375437
1.20219
1.046463
0.91961
0.833636
0.813521
0.846937
0.913446
1.024726
1.14509
1.254748
1.337154
1.411124
1.461411
1.432212
1.31347
1.118811
0.86543
0.599072
0.372294
0.226624
0.220136
0.391111
0.625675
0.881003
1.144766
1.353051
1.452976
1.4533
1.370246
1.202515
1.016615
0.866728
0.746364
0.672393
0.646763
0.676611
0.738577
0.796975
0.87127
0.982225
1.130491
1.280054
1.385494
1.448109
1.448109
1.397498
1.338776
1.323203
1.321581
1.334883
1.365055
1.358891
1.325474
1.280378
1.268699
1.295302
1.348509
1.442918
1.554199
1.673265
1.779679
1.838076
1.84716
1.799469
1.714468
1.579504
1.413071
1.2395
1.070471
0.921881
0.825525
0.798922
0.817739
0.880678
1.004936
1.155148
1.291733
1.409826
1.48769
1.497747
1.457842
1.380303
1.233011
1.03673
0.830067
0.628919
0.431665
0.250632
0.125077
0.059866
0.106909
0.297675
0.58577
0.899171
1.191159
1.441621
1.595726
1.6392
1.571069
1.395876
1.186293
0.974764
0.765181
0.596476
0.520884
0.546514
0.621458
0.745715
0.926099
1.148659
1.356944
1.522404
1.661261
1.733285
1.709926
1.61065
1.511374
1.433834
1.37057
1.32223
1.296924
1.320608
1.349158
1.392956
1.471144
1.555172
1.63336
1.689162
1.712846
1.69046
1.626547
1.526622
1.37349
1.194079
1.011749
0.856995
0.749608
0.701592
0.720409
0.800544
0.940049
1.106158
1.256695
1.382574
1.4679
1.503912
1.4679
1.400742
1.312821
1.166178
0.995527
0.830716
0.69413
0.603938
0.609778
0.67434
0.767776
0.924477
1.097723
1.248584
1.378681
1.49353
1.564905
1.563931
1.494179
1.318661
1.054249
0.720085
0.368401
0.146814
0.060191
0.026126
0.106909
0.455349
0.870945
1.255072
1.549332
1.752751
1.875062
1.880577
1.803038
1.663208
1.439674
1.144117
0.826174
0.581552
0.423554
0.401817
0.564358
0.821632
1.100967
1.338451
1.52792
1.674563
1.769946
1.786816
1.705384
1.583073
1.448758
1.276485
1.101292
0.961786
0.881327
0.876136
0.940374
1.042245
1.169747
1.334883
1.495152
1.6392
1.766053
1.852027
1.85884
1.780652
1.660612
1.508778
1.334558
1.154174
0.984172
0.830716
0.72268
0.701592
0.76291
0.889438
1.07404
1.27389
1.467251
1.637253
1.765728
1.807904
1.752426
1.626871
1.452003
1.27097
1.114269
0.978981
0.865106
0.789189
0.762261
0.753501
0.767452
0.830067
0.918961
1.010451
1.111998
1.216141
1.264805
1.249233
1.181751
1.032837
0.837529
0.615293
0.395004
0.224353
0.158818
0.246739
0.463459
0.779456
1.092532
1.376086
1.614867
1.779679
1.858516
1.85008
1.771243
1.616814
1.414693
1.177858
0.907282
0.663958
0.464757
0.378458
0.427447
0.593556
0.903389
1.268699
1.569122
1.790709
1.951952
2.013919
1.97596
1.874413
1.70441
1.512347
1.329367
1.182075
1.106807
1.09091
1.113296
1.148659
1.220358
1.335207
1.45038
1.543492
1.618112
1.674238
1.676509
1.631738
1.538301
1.387765
1.218412
1.058142
0.926099
0.817739
0.765181
0.780429
0.821307
0.888789
0.95692
1.012073
1.030566
1.047436
1.067551
1.078582
1.090586
1.077284
1.03965
0.995203
0.94816
0.897549
0.852453
0.843369
0.813521
0.71976
0.660065
0.676935
0.734035
0.821307
0.969573
1.129517
1.249882
1.315741
1.278756
1.188564
1.114918
1.082475
1.102914
1.165529
1.268699
1.405609
1.550954
1.694029
1.805309
1.875711
1.881875
1.808229
1.650555
1.448109
1.247286
1.070795
0.939076
0.856022
0.820659
0.799895
0.819361
0.930965
1.11362
1.335856
1.535706
1.702788
1.829317
1.896799
1.904585
1.849107
1.756644
1.621031
1.439025
1.242744
1.061062
0.905335
0.783024
0.71976
0.706783
0.722356
0.796975
0.905011
1.041921
1.189537
1.324825
1.428643
1.497747
1.529217
1.467251
1.346238
1.223278
1.115891
1.035432
0.992283
1.011749
1.0682
1.155472
1.272592
1.381276
1.452976
1.463358
1.402364
1.290436
1.159365
1.037703
0.895278
0.751879
0.65455
0.626973
0.656821
0.765505
0.936805
1.137304
1.355646
1.557767
1.700842
1.764755
1.769297
1.732312
1.654448
1.519809
1.308928
1.029917
0.725276
0.449833
0.265232
0.241873
0.376512
0.612049
0.924152
1.275512
1.588588
1.803038
1.930215
1.963307
1.865653
1.629467
1.342345
1.063009
0.838827
0.722356
0.69997
0.697374
0.732738
0.827147
0.969248
1.160663
1.367001
1.55063
1.668723
1.719334
1.698895
1.601241
1.48185
1.37933
1.294978
1.257019
1.254748
1.271943
1.256046
1.231065
1.244366
1.284596
1.366677
1.469846
1.58502
1.682349
1.75048
1.772541
1.71317
1.579829
1.389387
1.177209
1.013695
0.904362
0.827472
0.778158
0.78854
0.842071
0.922854
1.051005
1.197972
1.338127
1.455247
1.534408
1.557118
1.516889
1.416964
1.240149
0.993256
0.704512
0.457295
0.278209
0.159791
0.131241
0.189639
0.323954
0.53451
0.807357
1.105834
1.378032
1.580478
1.686567
1.722579
1.702139
1.617138
1.485095
1.326123
1.18532
1.058142
0.942969
0.87419
0.84272
0.870945
0.910526
0.940374
0.970546
1.003962
1.000069
0.936156
0.877758
0.848235
0.801193
0.744742
0.749932
0.845315
0.977035
1.124002
1.263183
1.39912
1.54771
1.688513
1.795251
1.84716
1.815366
1.698246
1.524675
1.340722
1.155472
0.974764
0.862835
0.84564
0.869648
0.909228
0.985794
1.109078
1.263832
1.442918
1.615192
1.755671
1.856893
1.910425
1.892581
1.819584
1.690135
1.490934
1.252801
0.993581
0.727871
0.482276
0.324603
0.28924
0.368076
0.545865
0.816765
1.158392
1.472442
1.689487
1.808229
1.818935
1.74464
1.607405
1.417613
1.217438
1.025375
0.853102
0.710676
0.649683
0.672393
0.763559
0.936481
1.14509
1.340074
1.490934
1.610001
1.676509
1.658666
1.577882
1.420857
1.219709
1.010451
0.820983
0.678557
0.586419
0.545865
0.526399
0.52867
0.580904
0.677909
0.795353
0.866728
0.886194
0.881652
0.946862
1.049707
1.098696
1.150605
1.197648
1.192782
1.17656
1.195701
1.251504
1.319634
1.403013
1.503263
1.617463
1.681376
1.661585
1.531813
1.288813
1.016615
0.802815
0.674664
0.615618
0.607183
0.687966
0.844018
1.020508
1.184671
1.345589
1.524675
1.698895
1.850729
1.960712
2.010999
1.998346
1.905234
1.768972
1.585993
1.389063
1.198621
1.028295
0.913122
0.877434
0.915068
0.985794
1.080204
1.211274
1.345264
1.45038
1.529866
1.586317
1.589562
1.547385
1.466602
1.32807
1.166503
1.003962
0.867052
0.768749
0.726573
0.756745
0.835582
0.959515
1.104212
1.229442
1.328394
1.418262
1.487366
1.492881
1.40204
1.204786
0.935507
0.673042
0.46573
0.336607
0.269774
0.266854
0.312274
0.395329
0.545216
0.740848
0.964706
1.210625
1.448758
1.639524
1.754049
1.779679
1.674238
1.498396
1.324176
1.158716
1.030241
0.962111
0.974439
0.989687
1.007207
1.056845
1.057169
1.009478
0.962111
0.944591
0.924477
0.901766
0.890736
0.873865
0.900793
0.975088
1.088963
1.210625
1.312172
1.372841
1.389712
1.384521
1.370895
1.3537
1.319634
1.314443
1.375112
1.419884
1.437403
1.433834
1.381276
1.291409
1.198621
1.12822
1.101292
1.120109
1.178182
1.27908
1.419235
1.533759
1.606432
1.625249
1.615516
1.562958
1.471468
1.402364
1.326447
1.238202
1.171694
1.13114
1.091883
1.060413
1.068849
1.11362
1.19927
1.322554
1.439674
1.531488
1.611947
1.673914
1.67586
1.623951
1.55355
1.424101
1.257992
1.086368
0.933561
0.814819
0.743768
0.743119
0.797948
0.922206
1.077933
1.245988
1.375112
1.446812
1.475686
1.431888
1.349807
1.244691
1.096425
0.915393
0.709703
0.483899
0.242521
0.097501
0.040076
0.018664
0.062137
0.410253
0.863159
1.270321
1.580478
1.791034
1.889012
1.888363
1.806931
1.663856
1.487366
1.330016
1.207057
1.123678
1.105185
1.122704
1.187915
1.318986
1.475686
1.611299
1.70733
1.764106
1.765079
1.715117
1.607405
1.420208
1.212896
1.01694
0.854724
0.746039
0.711649
0.746688
0.833311
0.96276
1.121407
1.285569
1.427995
1.534733
1.597024
1.597024
1.534084
1.404311
1.201217
0.968924
0.740524
0.506933
0.295079
0.180231
0.180231
0.269125
0.461513
0.70873
0.972168
1.211923
1.380628
1.462709
1.491583
1.524026
1.515267
1.455571
1.374139
1.283947
1.185644
1.100319
1.057169
1.038028
1.013046
0.98839
0.917015
0.832338
0.798273
0.815468
0.841098
0.870621
0.847262
0.770047
0.706459
0.689588
0.773291
0.954649
1.145415
1.328718
1.486717
1.619085
1.752426
1.865329
1.932162
1.963632
1.95909
1.879604
1.711224
1.48477
1.234958
0.998771
0.785295
0.63119
0.569224
0.606209
0.719436
0.863483
1.07404
1.31055
1.531813
1.730041
1.892257
1.972716
1.954872
1.869222
1.720956
1.516889
1.283622
1.08215
0.937778
0.844018
0.803464
0.774589
0.755448
0.793731
0.881003
1.005585
1.168125
1.361811
1.493854
1.543817
1.515267
1.416315
1.280054
1.121407
0.981577
0.86835
0.797299
0.779131
0.813521
0.905011
1.040948
1.184671
1.302764
1.367326
1.36765
1.289138
1.177209
1.068849
0.953027
0.830716
0.695752
0.593232
0.51991
0.474166
0.482276
0.565655
0.717165
0.881976
1.054574
1.206732
1.349482
1.506831
1.679105
1.813744
1.862409
1.781625
1.614218
1.424101
1.242095
1.09675
1.02505
1.015317
1.086368
1.241122
1.400093
1.548683
1.671967
1.738476
1.728743
1.665154
1.569122
1.421182
1.258641
1.099994
0.963733
0.877434
0.855048
0.88814
0.925774
0.95692
0.996825
1.053925
1.091234
1.101616
1.09383
1.051654
0.988714
0.90274
0.772643
0.652603
0.595503
0.592908
0.622431
0.713921
0.854724
1.015966
1.23074
1.454598
1.65023
1.767999
1.778057
1.708953
1.606108
1.485419
1.32807
1.125624
0.911824
0.690561
0.417066
0.168875
0.067328
0.028721
0.013473
0.040725
0.556896
1.207705
1.778705
2.164779
2.307205
2.276708
2.163157
1.993804
1.800118
1.604161
1.43351
1.310875
1.241771
1.229118
1.226198
1.23658
1.285245
1.34786
1.417288
1.509103
1.626547
1.687216
1.687216
1.625249
1.494828
1.330665
1.165529
1.0111
0.885869
0.837529
0.854399
0.911175
1.024077
1.153525
1.283622
1.39912
1.474388
1.506183
1.489961
1.448434
1.363108
1.236904
1.101941
0.973466
0.860888
0.789513
0.786269
0.818712
0.880029
1.007856
1.178182
1.341047
1.466602
1.53603
1.512996
1.422804
1.278432
1.070146
0.842395
0.628271
0.439776
0.269449
0.155898
0.152978
0.220785
0.367752
0.658443
1.043867
1.397174
1.674887
1.843916
1.893879
1.841321
1.696949
1.480228
1.247286
0.97379
0.661038
0.420959
0.311625
0.334336
0.494605
0.817414
1.240149
1.670994
1.982449
2.164779
2.21312
2.137527
1.999968
1.816664
1.587615
1.333261
1.047112
0.783998
0.573117
0.455024
0.434909
0.532563
0.752852
1.055223
1.372192
1.651853
1.863382
1.94157
1.9101
1.823801
1.677807
1.491259
1.301142
1.130166
0.987092
0.895278
0.857319
0.873541
0.936805
1.039325
1.176884
1.324501
1.450056
1.515916
1.497423
1.415342
1.315741
1.190835
1.054898
0.928694
0.834933
0.776536
0.774589
0.819685
0.885869
0.982874
1.100319
1.206408
1.29368
1.361486
1.38517
1.337478
1.24534
1.108105
0.941023
0.777185
0.673691
0.662985
0.700294
0.772643
0.861212
0.962435
1.099994
1.248259
1.400093
1.529866
1.620058
1.654448
1.634333
1.580153
1.491259
1.391009
1.284271
1.179155
1.070471
0.991634
0.980928
1.01694
1.091234
1.214194
1.323852
1.37349
1.319959
1.211274
1.065604
0.928045
0.859266
0.878083
0.96276
1.041921
1.069822
1.079879
1.103563
1.113945
1.079231
1.036406
1.033486
1.066253
1.114918
1.193106
1.279405
1.326123
1.343318
1.308928
1.229442
1.157419
1.087017
1.043219
1.02797
1.054898
1.111349
1.202515
1.345589
1.511049
1.65315
1.739449
1.782274
1.775137
1.723552
1.635631
1.489637
1.312172
1.133735
0.979306
0.875163
0.821632
0.839476
0.905984
1.019535
1.174938
1.342345
1.489312
1.611947
1.692406
1.698571
1.632711
1.511049
1.329367
1.135357
