1.836454
1.925024
1.959738
1.966876
1.911722
1.75632
1.498721
1.136006
0.70873
0.318438
0.125726
0.054027
0.243819
0.666878
1.216141
1.694353
1.93573
2.016514
2.062908
2.102488
2.108004
2.046686
1.938326
1.768648
1.556794
1.329367
1.115242
0.940049
0.838827
0.822281
0.850182
0.928694
1.060738
1.241446
1.446812
1.618112
1.74464
1.793629
1.787465
1.732312
1.592481
1.410475
1.222305
1.045814
0.900793
0.803788
0.75707
0.760963
0.814494
0.881327
0.977035
1.083448
1.177533
1.23658
1.257019
1.271294
1.323203
1.351104
1.265454
1.090261
0.930641
0.786269
0.75707
0.952053
1.156121
1.281676
1.336505
1.338127
1.337154
1.363433
1.414368
1.475037
1.529866
1.429941
1.223278
1.000394
0.912473
0.942645
1.034459
1.212572
1.381276
1.491583
1.585668
1.697597
1.808553
1.916913
1.996724
1.99575
1.898096
1.718361
1.451354
1.114594
0.768749
0.403115
0.162711
0.071222
0.262961
0.599396
1.069498
1.530839
1.879604
2.071992
2.154398
2.172566
2.13039
2.034358
1.84716
1.569771
1.287191
1.046138
0.88814
0.825849
0.826823
0.896575
0.997798
1.143792
1.307955
1.452003
1.584695
1.702788
1.77319
1.790385
1.771892
1.674238
1.506507
1.273241
1.001367
0.753826
0.577335
0.561438
0.750906
0.983523
1.19635
1.393929
1.560363
1.692082
1.785194
1.812771
1.777732
1.691433
1.527595
1.314768
1.082475
0.84564
0.576686
0.316816
0.172769
0.161738
0.346988
0.796651
1.324501
1.733609
1.993804
2.065828
1.985044
1.809851
1.549332
1.269672
1.112647
1.099021
1.130815
1.064956
1.089612
1.070471
1.076959
1.145739
1.259615
1.313146
1.381276
1.492557
1.575935
1.712521
1.844565
1.820233
1.660612
1.446163
1.497747
1.57042
1.121731
1.056196
0.995203
0.987092
1.068849
1.171369
1.276809
1.361486
1.411124
1.40496
1.377708
1.398796
1.417613
1.435457
1.616814
1.960387
1.689811
1.119136
1.104212
1.126922
1.205434
1.319959
1.462709
1.615841
1.733934
1.803687
1.813095
1.778381
1.70441
1.564256
1.390036
1.190186
0.999096
0.859266
0.785944
0.787242
0.850182
0.983523
1.150281
1.301142
1.430914
1.51916
1.511049
1.400093
1.262534
1.064631
0.860239
0.795353
0.863808
1.025699
1.484446
1.314443
1.321581
1.322879
1.352402
1.397174
1.425724
1.394254
1.343318
1.289787
1.180778
1.112647
1.169747
1.191159
1.158716
1.527595
2.156993
1.485743
1.233336
1.178507
1.197972
1.281027
1.434808
1.679754
1.85884
1.954223
1.958116
1.891608
1.752751
1.54187
1.311848
1.080528
0.867701
0.69413
0.638328
0.662011
0.698997
0.86835
1.109403
1.361162
1.602539
1.77903
1.898421
1.935082
1.92178
1.850405
1.699868
2.042144
1.809202
1.190186
0.808655
0.740199
0.74831
0.842395
1.007207
1.206408
1.402364
1.5821
1.705708
1.760213
1.762159
1.714792
1.631089
1.616814
2.233559
2.211498
1.636929
0.832987
0.630866
0.436532
0.33174
0.37489
0.618538
1.064631
1.497423
1.85884
2.027869
1.964605
1.792656
1.551279
1.212896
0.881327
0.627622
0.49136
0.524128
0.736955
0.991634
1.255397
1.463033
1.563607
1.61357
1.705708
1.812771
1.875062
1.921131
1.879604
2.313045
2.806506
2.579728
2.182623
0.748635
0.861537
0.856995
0.886194
0.946538
1.000069
1.049058
1.13925
1.31347
1.536679
1.794278
1.961036
2.129741
3.313919
3.440123
3.091034
2.472017
0.874514
0.914419
0.929992
1.013371
1.129842
1.26805
1.411449
1.53603
1.648284
1.718037
1.726147
1.666776
1.533759
1.949032
2.377607
2.282873
1.573664
0.82001
0.781402
0.757394
0.809628
0.894953
1.030241
1.218412
1.456869
1.640173
1.718037
1.664505
1.52208
1.385494
2.177757
2.596599
2.53301
1.204786
0.712623
0.608805
0.584472
0.677909
0.875163
1.105509
1.363108
1.621031
1.758915
1.812122
1.788114
1.665479
2.161211
1.816664
0.626324
0.289888
0.17796
0.272045
0.501418
0.844666
1.223603
1.537328
1.772217
1.97888
2.130065
2.180677
2.168673
2.347759
3.387241
3.54232
2.669596
1.371219
0.391436
0.17212
0.163685
0.363534
0.635732
1.047112
1.541221
1.968174
2.248158
2.338675
2.29001
2.198196
2.83311
3.801218
4.23239
4.193782
3.804137
2.477532
1.046138
0.891385
0.920583
1.032512
1.183373
1.345264
1.498721
1.619409
1.676185
1.682674
1.641795
1.528893
2.351977
2.885343
2.953799
2.666676
1.4108
0.830716
0.867052
0.946214
1.057818
1.191808
1.34494
1.485743
1.595077
1.632387
1.594428
1.48477
1.283947
1.203163
1.331638
1.27389
0.904686
0.666553
0.839476
0.972492
1.124002
1.249882
1.369921
1.514293
1.728418
1.908478
1.949681
1.822179
1.479579
1.020833
0.550083
0.221433
0.089065
0.115669
0.578308
1.004287
1.336829
1.652826
1.906532
2.018136
2.08724
2.137203
2.138825
2.088213
1.967525
2.082374
2.691982
2.473963
1.994777
1.408529
0.600369
0.746039
0.924152
1.08799
1.301466
1.517538
1.729716
1.884146
1.971742
1.93865
1.835157
1.694029
1.502938
2.300716
2.553449
2.406481
1.962334
1.111674
0.903064
1.041272
1.223278
1.396849
1.565554
1.719983
1.829317
1.908478
1.943192
1.898421
1.768648
2.695875
3.385943
3.590012
3.455696
2.400642
1.14217
0.940698
0.998447
1.087017
1.14217
1.177533
1.225225
1.276809
1.360513
1.56166
1.783896
2.426596
3.919636
4.115918
3.782725
2.932386
1.002989
0.671096
0.610102
0.644817
0.79438
1.022779
1.240473
1.358242
1.46498
1.545439
1.577233
1.577558
1.741396
3.904063
4.940954
5.024658
4.465658
2.940821
1.083773
1.022131
0.941996
0.945889
1.018237
1.181751
1.485419
1.842618
2.026896
2.052201
2.020732
2.974562
3.616939
3.993607
4.067253
3.039449
1.654772
1.069822
1.091883
1.1824
1.283622
1.358891
1.457518
1.563283
1.637902
1.719334
1.795576
1.765404
3.120233
3.97187
4.167827
3.67112
1.984071
0.985145
0.979954
1.063658
1.195701
1.339425
1.494828
1.634009
1.753075
1.834832
1.86468
1.837103
1.807904
2.768223
3.003113
2.553774
1.43643
0.702565
0.670771
0.729493
0.920908
1.231065
1.493205
1.603188
1.570745
1.510725
1.404635
1.316714
1.349807
1.459789
2.877557
3.814519
4.125975
3.176684
1.677158
1.141197
1.119136
1.177858
1.275836
1.4108
1.582424
1.724525
1.732636
1.640822
1.607405
1.54771
1.489637
2.497322
3.188364
3.34766
2.091782
1.091883
1.017588
0.963733
0.921881
0.892358
0.896575
0.954324
1.125624
1.353375
1.595077
1.763133
1.898745
3.938777
5.049964
5.064239
4.206111
2.393828
1.211274
1.147686
1.168449
1.264805
1.389712
1.535381
1.676185
1.780328
1.823801
1.82153
1.753075
1.620707
2.332186
2.662458
2.723127
1.933784
1.050681
1.057169
1.062036
1.108105
1.204137
1.305035
1.404635
1.504885
1.574313
1.604161
1.665479
1.686891
2.002888
2.670569
2.83311
2.645912
1.358242
0.995527
0.966977
0.972168
1.023428
1.109727
1.207057
1.317688
1.426048
1.455247
1.485743
1.509103
1.463682
1.423453
2.202738
2.5674
2.340297
0.963408
1.003962
0.992932
1.014669
1.009478
0.977035
1.040299
1.208679
1.448434
1.726796
1.949357
2.060312
3.282449
4.007233
4.141873
3.841123
2.52717
1.014669
0.835258
0.700619
0.657794
0.735333
0.917988
1.18824
1.457518
1.707655
1.8676
1.878955
1.781625
2.238425
2.719558
2.676733
2.279304
0.925125
0.924801
0.950431
1.018886
1.132762
1.286542
1.510725
1.73588
1.948059
2.0814
2.086267
1.997697
1.85008
2.734482
2.975211
2.665703
1.941246
0.90566
0.853751
0.860888
0.963733
1.126273
1.312821
1.499694
1.637253
1.683971
1.616489
1.480228
1.338127
1.212572
1.128544
1.8105
2.759788
2.398695
1.232687
1.061387
1.031863
1.080528
1.179155
1.263508
1.337478
1.403987
1.442594
1.43351
1.410475
1.383872
1.297573
1.18824
1.329692
1.489312
0.891709
0.994878
1.025699
1.063009
1.083773
1.103563
1.148983
1.211274
1.367975
1.643742
1.908154
1.991208
2.132336
3.454074
3.964408
3.845016
3.325923
1.893879
1.129517
1.047112
0.976061
0.906957
0.837205
0.845964
1.052627
1.323528
1.561012
1.829641
2.034033
3.561786
4.333289
4.402393
4.107483
2.996299
1.543817
1.143792
1.15093
1.226198
1.343318
1.458816
1.53603
1.585993
1.607081
1.593779
1.55647
1.45622
1.311199
1.415666
1.526297
1.34786
0.724951
0.755448
0.825849
0.932912
1.082475
1.247286
1.419235
1.577558
1.6963
1.765404
1.752102
1.648608
1.473091
1.232362
1.666452
2.04993
1.549656
0.686993
0.513422
0.434585
0.517639
0.838502
1.307955
1.736205
2.018461
2.098595
2.043117
1.926322
1.762808
1.549656
1.969147
2.209551
1.743667
0.583823
0.290213
0.141623
0.152654
0.463459
1.100643
1.692406
2.075561
2.249781
2.277357
2.24167
2.149207
2.086916
3.083896
3.266552
2.800018
1.872142
0.650007
0.451455
0.324278
0.321358
0.506933
0.858293
1.294978
1.71901
2.042469
2.215391
2.268598
2.213444
3.1105
3.907632
4.004962
3.609153
2.781201
0.984821
0.819685
0.736955
0.746688
0.87711
1.091559
1.340398
1.641795
1.875386
1.967849
1.948708
1.852676
2.000941
2.813644
3.019334
2.814617
1.944815
0.895602
0.875163
0.90566
1.011749
1.158067
1.31055
1.441296
1.532137
1.571393
1.56458
1.518835
1.410475
1.271618
1.473091
1.728743
1.683647
0.861537
0.910202
1.004287
1.063982
1.101616
1.143144
1.200892
1.269672
1.343967
1.406258
1.366028
1.219385
1.044192
0.947187
0.872243
2.054148
3.070919
2.651752
1.819908
1.368624
1.48477
1.594753
1.64731
1.629791
1.568149
1.450705
1.269347
1.127895
1.036406
1.010775
1.249233
3.434933
4.361839
3.927098
2.361385
1.121082
1.068849
1.117838
1.25345
1.527271
1.831588
2.03014
2.075561
2.040846
1.976284
1.833534
2.598545
3.085843
3.04756
2.778605
1.595401
0.920259
0.921232
1.012073
1.174289
1.3391
1.472442
1.57626
1.646337
1.653799
1.62752
1.591833
1.537653
2.406157
3.142294
3.141645
2.659863
1.129193
0.88522
0.898198
0.978332
1.108429
1.255721
1.37933
1.451354
1.472442
1.44746
1.393605
1.356944
1.340074
1.895176
2.499918
2.257891
1.231389
0.683748
0.672069
0.664607
0.694779
0.750257
0.803139
0.903389
1.163583
1.511698
1.82153
2.100542
3.734709
5.598908
6.096269
5.610912
4.480257
2.238101
0.840124
0.718787
0.721382
0.861861
1.074688
1.327096
1.469846
1.522729
1.551603
1.632387
1.743991
1.829317
3.200043
3.540373
3.557568
3.657494
2.637802
1.220034
1.122055
1.183049
1.302764
1.450056
1.597997
1.711224
1.766701
1.746262
1.670345
1.537004
1.348509
1.151579
1.150605
0.904686
0.613347
0.68829
0.838178
1.028619
1.235607
1.446163
1.634009
1.789087
1.898745
1.946112
1.911074
1.813095
1.653475
1.701815
2.134607
2.116763
1.928917
0.765181
0.681477
0.672718
0.735982
0.889114
1.114918
1.368624
1.646986
1.905234
2.018136
2.02138
1.955845
2.067774
3.110824
3.179604
2.65597
1.686242
0.525426
0.348611
0.281129
0.330118
0.552678
0.999096
1.439674
1.861111
2.148882
2.190734
2.094378
1.920158
2.163157
2.518735
2.425623
2.11287
1.294978
0.585121
0.446913
0.436207
0.585121
0.853751
1.282649
1.72193
2.0814
2.2673
2.273789
2.148558
2.133634
2.71015
2.709826
2.372416
1.93865
0.761936
0.685371
0.715543
0.745715
0.806384
0.961462
1.162285
1.375112
1.661261
1.929566
2.079454
2.10184
2.812995
3.369073
2.817537
1.757942
0.685695
0.438803
0.543918
0.802815
1.125624
1.404311
1.645364
1.834508
1.979204
2.079129
2.09892
2.057717
1.95325
2.686791
3.390485
3.553351
3.169222
2.15018
0.754474
0.67434
0.636381
0.728195
0.971519
1.249882
1.546088
1.816339
1.966876
1.990559
1.926971
1.799469
2.719883
3.240922
3.270445
3.031014
1.791358
0.810926
0.782051
0.780753
0.815468
0.861212
0.893007
0.929992
0.994554
1.093505
1.26513
1.535381
2.076534
4.491288
5.368884
5.244301
4.581481
2.824675
1.075662
0.926748
0.853426
0.820334
0.829743
0.920259
1.120109
1.461087
1.753724
1.940921
2.147585
3.871944
4.991566
5.270255
4.946145
4.078608
2.329266
1.066578
1.041596
1.07112
1.143144
1.229118
1.296924
1.331314
1.349807
1.379654
1.493205
1.563607
2.268598
3.000193
3.059239
2.659863
1.674887
1.058467
1.111998
1.256046
1.352402
1.447785
1.55063
1.655746
1.760537
1.83321
1.851703
1.831912
1.747884
2.80164
3.106931
2.839274
2.149207
0.688615
0.626
0.660065
0.811574
1.083124
1.34202
1.540897
1.714792
1.845214
1.905234
1.904909
1.813095
2.071992
2.946661
3.174413
2.853874
2.03014
0.715543
0.626
0.569548
0.61724
0.723978
0.89106
1.147686
1.437403
1.655421
1.780652
1.851703
2.016838
3.74801
4.486097
4.525678
4.133762
2.733185
1.066253
0.823578
0.714894
0.652603
0.622431
0.642546
0.77686
1.090586
1.401391
1.718361
1.994128
3.889463
5.856186
6.622181
6.381773
5.457779
3.446937
1.708304
1.095452
1.110376
1.180778
1.277134
1.386467
1.509427
1.619085
1.713819
1.791358
1.757293
1.658341
2.278006
2.398695
2.329591
2.10703
1.064631
0.932587
1.045814
1.221656
1.420208
1.576909
1.694029
1.778057
1.818286
1.80466
1.767675
1.686242
2.140447
2.83895
3.016739
2.772117
1.680078
0.843693
0.864781
0.941996
1.087017
1.258966
1.429941
1.573989
1.68754
1.754049
1.76443
1.735556
1.63628
2.509002
3.263632
3.459265
3.167924
1.718361
0.934858
0.917664
0.967626
1.075337
1.169098
1.220683
1.241446
1.214194
1.125949
1.063658
1.112971
1.217114
1.940597
3.443043
4.042596
4.098399
3.312297
1.982773
1.327421
1.324501
1.380303
1.43351
1.475037
1.541221
1.554523
1.47601
1.448109
1.535381
1.860138
3.155596
3.703563
3.806408
2.673814
1.102914
0.96276
0.911499
0.948485
1.042894
1.191484
1.374463
1.602863
1.906856
2.10703
2.199169
3.165329
4.374167
4.542224
4.164583
3.42228
1.688513
0.91961
0.834609
0.816765
0.875812
0.98839
1.177209
1.445514
1.697922
1.89323
2.002239
1.996075
2.357168
3.491708
3.821981
3.649383
2.974238
1.403338
1.020833
1.005909
1.070795
1.189537
1.338776
1.492557
1.623951
1.683322
1.646013
1.53603
1.374788
1.195701
1.041596
1.178507
1.890634
1.679754
1.023104
1.041596
1.101616
1.214519
1.341696
1.439025
1.452327
1.416639
1.361486
1.314119
1.3391
1.426372
1.82445
3.331763
3.752553
3.375237
1.91594
1.101616
1.0682
1.066253
1.1107
1.186293
1.254099
1.324176
1.44227
1.546088
1.565554
1.501641
1.396525
1.488663
3.12737
4.110727
4.14609
2.727345
1.389712
1.371219
1.433834
1.506183
1.525649
1.462709
1.388738
1.355646
1.329043
1.381925
1.5675
1.981151
3.701941
4.184374
3.873242
2.490834
1.1253
1.043219
1.038352
1.125949
1.265454
1.427021
1.584371
1.723552
1.812446
1.848458
1.834183
1.749831
1.786492
2.390584
2.374363
1.864355
0.917339
0.77978
0.668825
0.689913
0.812872
0.985794
1.208354
1.465953
1.686567
1.812771
1.849756
1.844241
1.742693
1.922104
2.345488
2.265029
1.652826
0.98255
0.917015
0.844018
0.841098
0.890736
1.011424
1.300168
1.615516
1.859164
2.020732
2.029816
1.871168
1.601566
1.264481
1.020508
0.850506
0.84272
0.909877
1.015966
1.158716
1.314119
1.460762
1.634982
1.803362
1.943517
2.027869
2.050255
1.98764
1.816339
1.600592
1.31055
0.996176
0.699646
0.476761
0.395004
0.458917
0.680828
0.994229
1.31639
1.617787
1.881875
2.056095
2.099569
2.074263
2.004186
1.858516
1.883172
1.991857
1.454922
0.935183
0.759665
0.68829
0.700619
0.814494
1.051978
1.290436
1.468224
1.661261
1.880253
1.997048
2.032411
1.981475
1.838401
2.065179
2.325049
2.153424
1.009478
1.076311
1.026997
1.029592
1.108754
1.232362
1.379654
1.532462
1.671643
1.774812
1.817637
1.784545
1.669372
1.545114
1.397174
1.236255
1.077608
0.965031
0.912797
0.910202
0.942969
0.965031
0.979954
1.010775
1.040623
1.126273
1.361811
1.612596
1.785518
1.804335
1.685593
1.830614
1.169747
0.806059
0.524777
0.374565
0.382351
0.67142
1.129517
1.561012
1.907829
2.179054
2.338675
2.368198
2.314018
2.184894
1.965903
1.723228
1.322879
0.978657
0.639626
0.392409
0.289564
0.31779
0.492658
0.813521
1.186617
1.555496
1.843916
2.0389
2.161211
2.179379
2.043442
1.807904
1.508129
1.184022
0.934534
0.833311
0.888789
1.032837
1.236904
1.446812
1.62168
1.762484
1.876359
1.965254
2.002563
1.974662
1.884795
1.719983
1.524026
1.317688
1.120758
0.971844
0.890087
0.867701
0.884247
0.971195
1.112647
1.282325
1.454598
1.617787
1.73588
1.791034
1.787789
1.71901
1.577558
1.400742
1.22782
1.078906
0.960813
0.885545
0.82001
0.775563
0.804437
0.856995
0.947836
1.126598
1.345589
1.466926
1.588264
1.71025
1.698895
1.557118
1.319959
1.077284
0.86251
0.659416
0.557869
0.568251
0.699646
0.94816
1.234633
1.530515
1.826072
2.072316
2.234857
2.313369
2.281575
2.090809
1.807904
1.471793
1.142819
0.830716
0.572793
0.386569
0.310003
0.475463
0.762261
1.104536
1.48769
1.831912
2.066152
2.145313
2.12455
2.034033
1.873115
1.675212
1.540248
1.253775
1.143468
1.068849
1.04549
1.061062
1.162609
1.301466
1.418262
1.519484
1.617463
1.682025
1.698571
1.676509
1.592481
1.46206
1.306982
1.155148
1.023753
0.935832
0.908255
0.92545
0.981252
1.076311
1.195701
1.337803
1.461087
1.553874
1.614218
1.612596
1.561985
1.471793
1.402689
1.304062
1.160987
0.991958
0.84272
0.757394
0.720734
0.752528
0.832338
0.932912
1.089612
1.299844
1.518187
1.679105
1.742369
1.691109
1.521431
1.323203
1.103238
0.94232
0.880354
0.930965
1.026348
1.121407
1.244366
1.356295
1.461735
1.525324
1.554847
1.586317
1.591184
1.568149
1.522404
1.428643
1.242744
1.049707
0.880678
0.778482
0.744093
0.818063
0.978008
1.184995
1.405933
1.6246
1.803038
1.877657
1.865978
1.838401
1.77027
1.668074
1.542195
1.37641
1.171694
0.997798
0.915393
0.881327
0.906633
1.046463
1.235931
1.420208
1.591184
1.750804
1.861111
1.901989
1.885119
1.803362
1.634982
1.425075
1.216465
1.031215
0.89398
0.832338
0.821307
0.86251
0.997798
1.17072
1.341696
1.503587
1.628818
1.689162
1.701166
1.65023
1.509103
1.325799
1.138602
0.939725
0.771669
0.630542
0.555598
0.567926
0.662985
0.864781
1.100643
1.306333
1.473415
1.631089
1.726147
1.771243
1.778057
1.661261
1.425399
1.094803
0.845964
0.685046
0.610102
0.702241
0.956271
1.236255
1.458491
1.61357
1.692406
1.703113
1.649906
1.566851
1.522404
1.529866
1.569122
1.617787
2.29585
2.237777
1.17072
1.100643
0.996825
0.927072
0.947187
1.086368
1.27908
1.488663
1.689811
1.816015
1.819259
1.741396
1.614867
1.448109
1.252477
1.083773
0.989039
0.941996
0.925774
0.952702
1.007856
1.075337
1.19927
1.361811
1.498721
1.609676
1.685918
1.724201
1.713819
1.616489
1.498072
1.375112
1.258317
1.124327
1.047112
1.012722
1.01694
1.077608
1.159365
1.255397
1.368299
1.479579
1.578206
1.625249
1.625249
1.587291
1.500667
1.368624
1.199919
1.021482
0.860239
0.748959
0.706459
0.698672
0.754474
0.89398
1.077608
1.261561
1.387441
1.449407
1.500018
1.56458
1.573989
1.545439
1.501965
1.452651
1.384845
1.160014
1.123029
1.143792
1.241771
1.415666
1.561012
1.653475
1.700842
1.699544
1.646013
1.526622
1.370246
1.182075
1.047112
0.968599
0.970546
1.041272
1.102914
1.126598
1.126273
1.135357
1.161312
1.243393
1.423128
1.649906
1.82737
1.88155
1.854947
1.786492
1.66775
1.517538
1.363108
1.209976
1.106158
1.015317
0.984172
0.990012
1.064631
1.194404
1.344291
1.48769
1.592481
1.638226
1.616165
1.556794
1.463358
1.369597
1.312497
1.239175
1.149308
1.048085
0.981577
0.953351
0.98547
1.069822
1.172991
1.266103
1.327096
1.357268
1.392632
1.409826
1.448758
1.525649
1.53603
1.466602
1.489312
1.189213
1.076635
1.017264
1.013695
1.08215
1.184346
1.293355
1.414368
1.494179
1.506831
1.449407
1.385494
1.301791
1.198946
1.129193
1.116865
1.111349
1.0536
1.002016
0.966653
0.959515
1.045814
1.181102
1.3537
1.564256
1.809526
1.970445
1.977582
1.83029
1.560687
1.263508
0.993256
0.809952
0.819685
0.960164
1.139899
1.226847
1.269672
1.322554
1.394903
1.483797
1.568149
1.606108
1.577558
1.506831
1.402689
1.298871
1.230091
1.160338
1.093505
1.050356
1.055871
1.069173
1.078906
1.119136
1.214194
1.348833
1.499045
1.641795
1.751129
1.816339
1.846512
1.809526
1.686891
1.529866
1.362459
1.178831
0.998123
0.887491
0.84564
0.836556
0.907606
1.030566
1.181426
1.357593
1.527271
1.642768
1.689487
1.688189
1.626547
1.505209
1.357593
1.231389
1.137628
1.029592
0.923179
0.842071
0.817414
0.860239
0.989039
1.145415
1.312172
1.480228
1.654124
1.75048
1.690784
1.526622
1.381601
1.219709
0.998123
0.810926
0.757719
0.841747
0.947187
1.047112
1.183373
1.342669
1.500343
1.631413
1.740422
1.767675
1.702464
1.589237
1.443892
1.283947
1.158392
1.094479
1.039001
1.0111
1.009478
1.039325
1.098696
1.161961
1.223603
1.258966
1.285245
1.343318
1.408529
1.491259
1.590859
1.627845
1.597348
1.899394
1.815691
1.215816
1.152876
1.152552
1.17948
1.251504
1.335532
1.433834
1.544141
1.634982
1.657692
1.615516
1.552252
1.43935
1.330341
1.254099
1.140873
1.098696
1.071769
1.03965
1.030241
1.082475
1.188564
1.331314
1.486392
1.581451
1.559389
1.469846
1.356295
1.199919
1.016615
0.910202
0.885545
0.850831
0.813197
0.850182
0.899171
0.933885
1.02797
1.172018
1.392307
1.597348
1.721281
1.737827
1.596375
1.375112
1.129842
0.924801
0.898198
1.042894
1.203488
1.273565
1.338776
1.351753
1.370895
1.435132
1.545763
1.68754
1.836454
1.949681
1.965903
1.853649
1.689811
1.456869
1.193106
0.985794
0.907606
0.889762
0.935183
1.040299
1.123353
1.215167
1.342345
1.483797
1.628818
1.760862
1.856893
1.885443
1.851703
1.771243
1.592157
1.366677
1.152228
0.967626
0.820334
0.739226
0.723005
0.770372
0.908255
1.085395
1.267725
1.426697
1.527595
1.549008
1.495476
1.440972
1.375437
1.294653
1.233011
1.141846
1.014669
0.869972
0.766478
0.743444
0.769398
0.875163
1.054898
1.31055
1.591508
1.802064
1.935082
2.006781
1.962334
1.786492
1.561985
1.337478
1.172342
1.027646
0.864132
0.746364
0.706783
0.717489
0.849208
1.075662
1.35662
1.626547
1.851378
2.026571
2.088213
2.012621
1.81342
1.580153
1.34494
1.093505
0.815792
0.633137
0.575064
0.600694
0.793406
1.149632
1.524675
1.812122
1.979529
2.044415
2.029491
1.97304
1.843267
1.629791
1.378357
1.151579
0.906633
0.703863
0.55722
0.520559
0.57993
0.77102
1.0682
1.464331
1.776434
1.968822
2.048633
2.034033
1.95617
1.806931
1.614543
1.395551
1.190835
1.026673
0.91669
0.871919
0.887167
0.966977
1.10778
1.271294
1.423777
1.548034
1.639849
1.689811
1.703113
1.654772
1.525324
1.361486
1.194404
1.046138
0.897873
0.764532
0.667527
0.643519
0.728844
0.92253
1.188888
1.450705
1.63336
1.721281
1.715117
1.676509
1.644066
1.57918
1.464331
1.2966
1.116216
0.945565
0.832014
0.864781
0.993581
1.170396
1.332936
1.511698
1.741396
1.911074
1.887066
1.717063
1.470495
1.148334
0.924477
0.820983
0.729493
0.715218
0.812223
0.986443
1.184671
1.374463
1.557767
1.720632
1.886417
2.024949
2.119034
2.141096
2.097298
1.993479
1.796874
1.558092
1.30244
1.027646
0.778482
0.630542
0.564358
0.601992
0.832338
1.14801
1.438701
1.664181
1.803362
1.876684
1.893879
1.858191
1.767999
1.624276
1.452976
1.27389
1.104536
0.947187
0.846937
0.807032
0.831689
0.954973
1.124327
1.301466
1.448109
1.557118
1.649257
1.705708
1.703437
1.687864
1.632387
1.4533
1.223278
1.012073
0.849857
0.758368
0.717489
0.731115
0.828445
0.979306
1.102265
1.23074
1.463358
1.637578
1.590859
1.431239
1.255397
1.079879
1.032512
1.114918
1.188888
1.239175
1.267076
1.293031
1.383547
1.507805
1.645364
1.792007
1.8676
1.859813
1.787789
1.685918
1.601241
1.524026
1.469197
1.381925
1.23658
1.101292
1.046787
1.054574
1.098372
1.194404
1.298546
1.415991
1.529866
1.615841
1.649581
1.640173
1.598321
1.484121
1.362135
1.299195
1.242095
1.171369
1.105509
1.074688
1.070146
1.088963
1.145415
1.228145
1.332936
1.462384
1.590535
1.660937
1.686242
1.664181
1.556794
1.395876
1.215167
1.056845
0.946862
0.899171
0.923503
0.964057
1.034135
1.137953
1.283298
1.446812
1.587939
1.685269
1.736529
1.697273
1.526946
1.238526
0.933885
0.695752
0.575064
0.617889
0.78562
0.930641
1.03673
1.205759
1.473415
1.752102
1.967525
2.120657
2.179703
2.11579
1.970769
1.730689
1.427021
1.124651
0.84564
0.615942
0.446913
0.376836
0.418363
0.546514
0.864781
1.277458
1.695651
2.036953
2.285468
2.403561
2.398371
2.291308
2.077183
1.82445
1.563607
1.313146
1.099994
0.940374
0.857968
0.850506
0.924152
1.064307
1.281351
1.506183
1.686242
1.798496
1.82153
1.773514
1.655421
1.450705
1.209976
0.946214
0.632488
0.315519
0.129944
0.054351
0.128646
0.564358
1.241446
1.826397
2.169646
2.316938
2.35003
2.305583
2.211498
2.040522
1.81342
1.551279
1.272592
1.028619
0.835258
0.694455
0.601343
0.599072
0.708405
0.903064
1.221332
1.530191
1.78487
1.95033
2.04474
2.069072
1.961685
1.753724
1.505858
1.258641
1.010451
0.769398
0.526723
0.304812
0.239926
0.376187
0.680828
1.219061
1.797198
2.165104
2.303312
2.29293
2.174188
1.988288
1.771568
1.549981
1.331638
1.128869
0.968599
0.841098
0.712298
0.643843
0.661038
0.762261
0.936805
1.225874
1.514293
1.74464
1.912696
1.944166
1.842294
1.667425
1.457842
1.255072
1.099994
1.025699
1.013371
1.080853
1.221332
1.385818
1.547061
1.677807
1.76735
1.801091
1.773514
1.695326
1.531813
1.332612
1.174938
1.052303
0.943943
0.939076
0.977035
1.022779
1.119136
1.249882
1.384196
1.518187
1.646013
1.738476
1.769946
1.752426
1.680727
1.542195
1.378032
1.21679
1.054574
0.887167
0.749284
0.674015
0.638977
0.687966
0.776536
0.915393
1.123353
1.40204
1.651528
1.838076
1.936704
1.886741
1.716739
1.491583
1.242095
1.020184
0.894304
0.880678
0.961137
1.118162
1.333909
1.488014
1.597348
1.643417
1.630116
1.508454
1.341696
1.219061
1.14217
1.154499
1.27389
1.320932
1.255072
1.15969
1.070795
1.026348
1.121407
1.336829
1.582749
1.799793
1.965578
2.065179
2.079778
2.027869
1.89615
1.67586
1.439025
1.223927
1.053925
0.923503
0.834933
0.81125
0.841747
0.944267
1.083773
1.251828
1.433185
1.599943
1.712846
1.758591
1.740747
1.637902
1.482499
1.312172
1.13633
0.990661
0.887491
0.855697
0.884896
0.978332
1.136006
1.317688
1.487041
1.615192
1.697597
1.698246
1.618112
1.49353
1.329367
1.155148
0.968275
0.806059
0.65974
0.556896
0.609778
0.762261
0.906308
1.081502
1.27389
1.461735
1.640173
1.796225
1.893554
1.943517
1.918211
1.764106
1.548683
1.361486
1.16488
0.939725
0.75999
0.670771
0.662011
0.792433
0.972492
1.191159
1.514293
1.833859
2.013594
2.071667
2.063881
1.993479
1.862733
1.705384
1.535381
1.361486
1.207705
1.100643
1.041921
1.034783
1.121407
1.247935
1.353375
1.404635
1.383872
1.317363
1.240797
1.218412
1.269347
1.395227
1.451029
1.388089
1.267076
1.15969
1.106483
1.11362
1.195377
1.334558
1.496774
1.664505
1.809851
1.911074
1.941246
1.899394
1.759564
1.528568
1.273241
1.043867
0.88814
0.862186
0.936805
1.018562
1.081177
1.172991
1.295302
1.427995
1.561336
1.674563
1.72485
1.6817
1.551279
1.348184
1.10259
0.847262
0.649034
0.618538
0.627297
0.671744
0.749932
0.855048
1.019535
1.199919
1.410475
1.64731
1.891283
2.058366
2.119683
2.087565
1.896474
1.597672
1.27097
0.941347
0.639626
0.456646
0.481952
0.649359
0.945889
1.313146
1.658341
1.905234
2.044415
2.117737
2.118386
2.042469
1.898421
1.700842
1.49353
1.272592
1.0536
0.899171
0.795353
0.717814
0.741497
0.909228
1.125949
1.339425
1.579829
1.794927
1.965578
2.074263
2.112546
2.047659
1.880577
1.671967
1.463358
1.271943
1.114594
1.024726
0.99131
1.015642
1.11654
1.257019
1.408853
1.545439
1.635306
1.655097
1.633684
1.612921
1.529217
1.408529
1.271618
1.130491
0.997798
0.900144
0.866403
0.902091
1.018237
1.172667
1.317688
1.42475
1.477633
1.49353
1.471468
1.38517
1.218736
1.045814
0.850831
0.600369
0.461837
0.451131
0.513422
0.739551
1.101292
1.427995
1.645688
1.778381
1.794278
1.745938
1.687216
1.622005
1.594753
1.649581
1.706033
1.729716
1.676509
1.511698
1.329043
1.201541
1.119136
1.073391
1.098372
1.157419
1.221656
1.294978
1.422804
1.583722
1.757293
1.908478
1.893879
1.766377
1.592157
1.409826
1.238202
1.114594
1.067875
1.088639
1.187266
1.335856
1.498072
1.648933
1.7959
1.909451
1.951303
1.937677
1.861435
1.714143
1.532786
1.345589
1.161312
1.007531
0.91377
0.880354
0.897873
1.009153
1.169747
1.315741
1.41891
1.465953
1.436105
1.320283
1.221332
1.139575
1.058142
1.04549
1.130166
1.202515
1.226522
1.215167
1.196675
1.212572
1.266428
1.275187
1.21387
1.183698
1.197648
1.288813
1.445189
1.716739
1.903612
1.871168
1.728743
1.531813
1.346887
1.242744
1.196675
1.186942
1.240797
1.332612
1.40788
1.466278
1.51624
1.545439
1.535706
1.528568
1.512671
1.421506
1.28784
1.149957
1.035757
0.964057
0.954324
1.012073
1.123353
1.300493
1.455571
1.580153
1.703113
1.799793
1.859813
1.887714
1.877008
1.785843
1.631413
1.446812
1.25929
1.106483
0.999745
0.953675
0.958218
1.014344
1.133086
1.257668
1.346887
1.415017
1.433834
1.365055
1.28784
1.239824
1.150605
1.066902
0.977359
0.848235
0.762585
0.774589
0.834933
0.960489
1.17072
1.426048
1.663532
1.91302
2.134607
2.278331
2.318885
2.267624
2.121954
1.882848
1.612596
1.341696
1.081826
0.884247
0.763883
0.728195
0.758368
0.873865
1.09091
1.406258
1.706033
1.88447
1.916264
1.860462
1.77319
1.642768
1.467251
1.282325
1.100643
0.965031
0.86543
0.830067
0.842071
0.920908
1.062684
1.205759
1.327421
1.442594
1.551928
1.606108
1.623627
1.639849
1.609676
1.52208
1.412422
1.288489
1.181751
1.108754
1.081502
1.103887
1.17364
1.289138
1.422155
1.542843
1.630764
1.6817
1.685269
1.652177
1.59605
1.489637
1.340398
1.155796
0.970546
0.799895
0.6831
0.659416
0.676611
0.735982
0.880354
1.173965
1.526297
1.793954
1.9101
1.878955
1.767026
1.618436
1.429292
1.238526
1.029917
0.830067
0.601343
0.406359
0.369374
0.507906
0.787242
1.217763
1.649581
1.943517
2.096
2.150829
2.133634
2.055121
1.897447
1.670021
1.410475
1.157419
0.926099
0.754799
0.682775
0.701268
0.787242
1.003314
1.30244
1.568149
1.788114
1.948059
2.016838
2.035331
1.980502
1.82445
1.610001
1.394903
1.189537
1.020508
0.932263
0.90274
0.905011
0.977359
1.101941
1.259939
1.438052
1.607081
1.759564
1.892257
1.931188
1.848783
1.681051
1.479255
1.275187
1.092857
0.948809
0.87419
0.859266
0.904037
1.023104
1.175911
1.321257
1.445189
1.554199
1.606108
1.582424
1.515267
1.396525
1.238202
1.063658
0.887167
0.71684
0.580579
0.532563
0.549758
0.656172
0.903713
1.241771
1.576584
1.818286
1.92762
1.911398
1.824775
1.671643
1.41891
1.141521
0.922206
0.762585
0.709378
0.781078
0.937129
1.111674
1.285569
1.436754
1.58502
1.728418
1.840023
1.832885
1.712521
1.572691
1.441945
1.308604
1.325474
1.444865
1.467251
1.363757
1.252801
1.184022
1.183373
1.266428
1.388089
1.512347
1.637902
1.752751
1.815691
1.812122
1.759888
1.623303
1.415991
1.164232
0.885545
0.641897
0.488441
0.472219
0.555598
0.712947
0.918961
1.149632
1.392956
1.592806
1.742369
1.818935
1.809526
1.726796
1.583397
1.402364
1.214843
1.061387
0.940698
0.868674
0.816765
0.79438
0.84856
0.912148
1.025699
1.209652
1.388738
1.57334
1.770919
1.878306
1.829966
1.679754
1.514618
1.314768
1.124327
1.002665
0.97963
0.997149
1.049383
1.166827
1.317363
1.479255
1.669696
1.887066
2.000292
2.006457
1.941246
1.784221
1.545439
1.26221
0.974439
0.693481
0.474814
0.435558
0.589339
0.840124
1.166178
1.461087
1.690784
1.848458
1.938975
1.955521
1.911074
1.796225
1.609676
1.410151
1.19635
0.975088
0.781727
0.650332
0.599721
0.62308
0.75123
0.944267
1.172667
1.415342
1.634009
1.786167
1.854298
1.847809
1.756968
1.597672
1.366028
1.066253
0.813197
0.656496
0.593881
0.679206
0.952702
1.257668
1.496774
1.702464
1.873115
1.990884
2.022678
1.974662
1.867924
1.70441
1.499694
1.289787
1.091883
0.923828
0.786269
0.734684
0.788215
0.909228
1.047436
1.16488
1.219385
1.181426
1.095128
1.04841
1.055871
1.165529
1.388414
1.542519
1.583073
1.503263
1.320608
1.180453
1.144766
1.15677
1.229442
1.351753
1.479255
1.557443
1.560038
1.458816
1.269347
1.082799
1.003962
1.009802
1.089612
1.264157
1.40204
1.441296
1.411449
1.383547
1.389063
1.437403
1.489961
1.531488
1.573664
1.600917
1.569771
1.47082
1.349482
1.19343
1.03673
0.997474
1.09091
1.190186
1.202515
1.192782
1.213545
1.271943
1.342669
1.389063
1.401067
1.422479
1.470495
1.530191
1.605459
1.67586
1.634333
1.512022
1.354024
1.194404
1.056845
0.962111
0.919286
0.919935
0.990336
1.113296
1.255072
1.406258
1.549332
1.6817
1.770919
1.803038
1.764755
1.626871
1.445514
1.256695
1.076959
0.925125
0.835582
0.787242
0.708081
0.624053
0.576362
0.581877
0.711649
1.011749
1.363108
1.680727
1.942219
2.030465
1.932811
1.73588
1.520458
1.338451
1.202839
1.124002
1.091559
1.088639
1.138926
1.227171
1.328394
1.440972
1.504236
1.471144
1.402689
1.333909
1.288813
1.29076
1.31055
1.230416
1.038028
0.835258
0.706783
0.661687
0.810277
1.185969
1.523378
1.665803
1.707655
1.719659
1.658341
1.580153
1.555821
1.533435
1.495801
1.418586
1.276161
1.125949
1.044516
1.028944
1.063658
1.147686
1.257992
1.373814
1.4679
1.518835
1.565229
1.59021
1.586642
1.489637
1.387765
1.311524
1.253126
1.200244
1.141521
1.103238
1.075986
1.088963
1.183373
1.319959
1.458816
1.589886
1.700517
1.751778
1.738151
1.68754
1.581126
1.442594
1.287191
1.144117
1.035432
0.961462
0.936805
0.975412
1.080528
1.222954
1.369921
1.497747
1.566527
1.550954
1.480553
1.382574
1.244042
1.111025
1.052952
0.999745
1.00818
0.996825
0.936156
0.913122
0.975088
1.118811
1.272592
1.421506
1.556794
1.635955
1.655421
1.680403
1.69922
1.652501
1.509751
1.337478
1.17072
1.046138
0.969248
0.945565
0.949458
0.978981
1.075337
1.206408
1.332936
1.4533
1.611947
1.703762
1.692082
1.591184
1.454922
1.308604
1.231389
1.226847
1.18532
1.103238
1.050356
1.032512
1.084421
1.202839
1.336505
1.444865
1.526622
1.587291
1.610974
1.601566
1.550305
1.464007
1.341696
1.163258
1.017913
0.93421
0.93421
0.996825
1.087017
1.237878
1.428319
1.607405
1.747884
1.845863
1.896799
1.895825
1.837752
1.706357
1.518835
1.314768
1.13114
0.987741
0.901766
0.903389
0.935183
0.990985
1.102265
1.239175
1.368299
1.488014
1.583397
1.609028
1.589886
1.538626
1.406582
1.203488
0.949782
0.668176
0.364183
0.146814
0.061164
0.192883
0.515693
0.914744
1.444216
1.901341
2.151153
2.230964
2.208253
2.119034
1.968822
1.717063
1.391334
1.014669
0.608805
0.277884
0.125402
0.181204
0.47741
0.994229
1.504885
1.946112
2.253025
2.406157
2.457093
2.414917
2.29877
2.103462
1.853974
1.59605
1.360513
1.167476
1.017913
0.92837
0.892033
0.93421
1.056196
1.214519
1.383547
1.530191
1.645364
1.718361
1.728094
1.685269
1.575287
1.436105
1.289462
1.147361
1.026997
0.941996
0.914095
0.944591
1.026673
1.139899
1.26513
1.394903
1.479579
1.512671
1.513645
1.512996
1.486392
1.39036
1.26805
1.148334
1.041596
0.952378
0.910202
0.920259
0.966653
1.075662
1.209976
1.346562
1.466602
1.56458
1.615192
1.595401
1.537328
1.430914
1.252801
1.03965
0.886194
0.831689
0.801517
0.843693
0.952053
1.062684
1.197648
1.3391
1.463682
1.609676
1.708953
1.694029
1.603512
1.507156
1.377383
1.258641
1.152228
1.084421
1.05652
1.039001
1.011749
0.992607
1.041272
1.130815
1.238851
1.391009
1.586642
1.77611
1.916913
1.942543
1.872466
1.729067
1.533759
1.32223
1.114918
0.925774
0.817414
0.773616
0.755772
0.824876
0.973466
1.196999
1.47893
1.716414
1.835805
1.862084
1.844889
1.76735
1.631738
1.487366
1.354997
1.218087
1.093505
1.031863
1.01986
1.06236
1.152552
1.238202
1.323203
1.397174
1.461087
1.49645
1.533759
1.54479
1.456545
1.28492
1.080853
0.88522
0.724627
0.644492
0.670771
0.750581
0.834933
0.881003
0.961786
1.106158
1.282
1.481201
1.670345
1.783572
1.82153
1.717712
1.517213
1.325474
1.223927
1.161636
1.120433
1.112323
1.117513
1.172667
1.252801
1.346562
1.455247
1.553225
1.619085
1.622654
1.617787
1.588588
1.552901
1.524026
1.463358
1.317688
1.1253
0.967302
0.857968
0.831689
0.926423
1.082475
1.243393
1.424101
1.616814
1.780328
1.85884
1.835157
1.710899
1.555172
1.37641
1.180453
1.014993
0.918312
0.898847
0.934858
1.038352
1.209003
1.411124
1.58502
1.697273
1.77611
1.797198
1.755346
1.668399
1.526622
1.348184
1.160014
0.984496
0.850182
0.787891
0.784971
0.814819
0.911824
1.052627
1.191484
1.286867
1.32515
1.341696
1.323852
1.336505
1.359539
1.300493
1.2249
1.138926
1.051654
1.007207
1.039974
1.078906
1.092208
1.122704
1.185644
1.279729
1.46498
1.722254
1.902638
1.998346
2.010025
1.922753
1.722254
1.414368
1.078257
0.763234
0.499147
0.399546
0.502391
0.733062
1.058791
1.378032
1.608054
1.787141
1.920158
1.973365
1.968498
1.905558
1.753075
1.551603
1.345264
1.15093
0.991958
0.90566
0.877434
0.895927
1.002665
1.149308
1.315741
1.491908
1.637253
1.702464
1.711872
1.695975
1.622329
1.490285
1.32223
1.152228
1.006233
0.911824
0.880029
0.896575
0.969248
1.102265
1.248908
1.369272
1.44746
1.47893
1.463033
1.419884
1.327421
1.206408
1.084421
1.006882
0.927397
0.838178
0.80541
0.85959
0.914744
1.037703
1.276161
1.535381
1.780652
1.952925
2.033709
2.047335
2.022678
1.943517
1.782274
1.559714
1.287191
0.992283
0.711974
0.500769
0.441398
0.537754
0.758692
1.040623
1.327745
1.57042
1.798171
1.966876
2.026896
1.990235
1.885119
1.704086
1.477308
1.226522
0.97087
0.757719
0.646439
0.640275
0.719111
0.877434
1.090586
1.315092
1.540897
1.772217
1.909776
1.948059
1.908478
1.772541
1.573016
1.31931
1.010451
0.671744
0.383325
0.260041
0.293782
0.514395
0.965031
1.42767
1.8105
2.061934
2.153424
2.120008
2.031113
1.897772
1.712846
1.515916
1.317039
1.147686
1.032512
0.947511
0.89106
0.879056
0.951404
1.09383
1.281676
1.480877
1.651204
1.750804
1.76443
1.725174
1.605134
1.405284
1.193106
1.005585
0.825849
0.651954
0.552678
0.536456
0.64579
0.965031
1.347211
1.650879
1.820233
1.893554
1.898745
1.853325
1.787465
1.672941
1.497747
1.303088
1.131788
0.957244
0.779456
0.548785
0.329794
0.247063
0.322656
0.551056
1.017913
1.584046
2.057717
2.304285
2.33316
2.2673
2.119683
1.927944
1.712197
1.499694
1.299195
1.138602
1.021157
0.961786
0.966653
0.993581
1.046138
1.144441
1.229442
1.304711
1.441621
1.574313
1.576909
1.485743
1.436754
1.420857
1.375112
1.288489
1.213545
1.170396
1.176884
1.25637
1.369921
1.487041
1.612596
1.720308
1.778057
1.775137
1.6963
1.524675
1.321581
1.114594
0.932587
0.840124
0.840773
0.924801
0.991634
1.074688
1.209652
1.375112
1.517538
1.616814
1.686891
1.702139
1.677807
1.615841
1.485743
1.332612
1.170071
1.021806
0.900469
0.849208
0.86543
0.913122
1.026024
1.194404
1.398147
1.592481
1.725823
1.799469
1.806931
1.753075
1.62752
1.457842
1.270321
1.087341
0.949782
0.864457
0.75415
0.580255
0.37489
0.266529
0.266205
0.390787
0.690886
1.136655
1.625249
2.027545
2.240372
2.286766
2.223502
2.088213
1.919184
1.740098
1.55355
1.394254
1.270321
1.203163
1.22782
1.331638
1.45622
1.602539
1.762808
1.862084
1.856569
1.784221
1.636929
1.423128
1.192782
1.014669
0.941023
0.976386
1.050032
1.119136
1.234309
1.351429
1.482499
1.620383
1.737178
1.796225
1.788438
1.72777
1.608703
1.416964
1.20511
1.017913
0.868026
0.79957
0.841747
0.937129
1.040948
1.208679
1.404311
1.58502
1.730365
1.83613
1.894528
1.902638
1.869222
1.764755
1.602863
1.398796
1.176884
0.958866
0.779131
0.686019
0.640923
0.613996
0.624702
0.662011
0.727222
0.879056
1.109078
1.374463
1.684296
1.909776
1.969796
1.894852
1.736529
1.546412
1.37641
1.255072
1.177858
1.117838
1.117838
1.131788
1.09967
1.034135
0.974764
0.969897
1.047761
1.232687
1.401716
1.582424
1.754697
1.76735
1.669372
1.541546
1.450705
1.391658
1.363108
1.397174
1.443892
1.471793
1.451354
1.380628
1.2395
1.078906
1.035432
1.045165
1.063333
1.143792
1.266428
1.324825
1.318661
1.324501
1.354024
1.392632
1.469846
1.560363
1.650555
1.736529
1.792332
1.786167
1.732636
1.641471
1.501316
1.354997
1.226198
1.092857
0.961786
0.872568
0.842071
0.87419
0.981577
1.135033
1.327096
1.515591
1.673265
1.778057
1.809851
1.790709
1.715766
1.569447
1.390685
1.209652
1.04841
0.919286
0.847586
0.822605
0.840773
0.926423
1.034135
1.146063
1.266428
1.397498
1.463358
1.438376
1.418262
1.357593
1.269996
1.162285
1.056845
0.986767
0.978008
1.007207
1.048734
1.108754
1.203488
1.311848
1.408204
1.463682
1.482824
1.460438
1.433834
1.425724
1.435132
1.423453
1.359539
1.214843
0.998123
0.820659
0.756421
0.801517
0.95692
1.158067
1.354997
1.539599
1.693704
1.793305
1.800442
1.711872
1.546737
1.281676
0.962435
0.71684
0.578957
0.596152
0.816441
1.028944
1.21387
1.487366
1.736529
1.899718
2.005159
2.071343
2.095027
2.063232
1.979204
1.825748
1.631738
1.422155
1.193755
0.939076
0.702241
0.510177
0.367428
0.356072
0.519586
0.77686
1.142495
1.518187
1.798496
1.972391
2.034033
1.970445
1.781625
1.551603
1.314443
1.10259
0.937778
0.832338
0.798273
0.827796
0.93129
1.076311
1.238526
1.393929
1.508129
1.568149
1.554847
1.489312
1.395876
1.283947
1.193755
1.126273
1.04549
0.954973
0.896251
0.885545
0.917015
1.022779
1.17948
1.350131
1.516564
1.664505
1.753075
1.767026
1.688189
1.43935
1.075986
0.710676
0.398897
0.189315
0.119562
0.237979
0.50012
0.831689
1.177533
1.518835
1.802713
2.006132
2.128119
2.189761
2.155046
2.008079
1.778381
1.511698
1.209003
0.935183
0.737928
0.605236
0.580579
0.667851
0.907282
1.217114
1.497747
1.717388
1.871493
1.959738
1.976933
1.94449
1.825099
1.616814
1.381925
1.149957
0.954324
0.824227
0.738902
0.624053
0.495902
0.50304
0.601018
0.768425
1.049058
1.424101
1.708304
1.841321
1.853325
1.740422
1.583722
1.414693
1.245015
1.09383
0.981577
0.936481
0.955622
1.03089
1.160663
1.294329
1.399445
1.426697
1.333261
1.188888
1.048734
0.92545
0.848235
0.878407
1.054574
1.20803
1.249882
1.258317
1.282
1.306333
1.366028
1.473739
1.600592
1.685269
1.686567
1.62168
1.491583
1.315092
1.118162
0.923828
0.804437
0.786269
0.837853
0.910202
1.000394
1.104536
1.212896
1.349482
1.499045
1.644066
1.763457
1.848134
1.870195
1.823153
1.723876
1.56166
1.357268
1.147037
0.992932
0.889762
0.80833
0.757719
0.74539
0.797299
0.909877
1.041272
1.191808
1.358891
1.494828
1.572691
1.576584
1.517862
1.340398
1.097723
0.850182
0.638652
0.573442
0.72852
0.94232
1.115242
1.258966
1.411124
1.564905
1.686567
1.755671
1.771243
1.702139
1.517538
1.271943
1.013695
0.777509
0.640923
0.690237
0.889438
1.087017
1.18532
1.209328
1.253126
1.334558
1.443243
1.558092
1.631738
1.626871
1.508454
1.285893
0.99942
0.733711
0.555598
0.523479
0.662985
0.913122
1.109727
1.198621
1.266752
1.386792
1.536355
1.695326
1.821206
1.891283
1.892905
1.837103
1.734583
1.556145
1.337803
1.110052
0.897549
0.72852
0.63119
0.616591
0.70873
0.904037
1.109403
1.288165
1.459789
1.62168
1.743667
1.787465
1.770595
1.69338
1.537004
1.345589
1.121731
0.882625
0.666229
0.52575
0.468975
0.541647
0.754799
1.022779
1.281676
1.460438
1.5821
1.64731
1.642444
1.575287
1.416639
1.205759
1.010451
0.802815
0.622106
0.53159
0.558842
0.681477
0.918961
1.17656
1.366677
1.494828
1.599943
1.705059
1.812446
1.869546
1.829317
1.665479
1.444216
1.191159
0.917988
0.628919
0.340824
0.142272
0.058569
0.062462
0.388191
0.870621
1.372841
1.774812
2.035007
2.154398
2.169321
2.077832
1.901989
1.691109
1.466926
1.229767
1.000069
0.838502
0.789189
0.801841
0.91961
1.111998
1.291084
1.435781
1.550954
1.637578
1.697273
1.723228
1.662559
1.504885
1.292382
1.063009
0.851155
0.682126
0.593556
0.586419
0.673691
0.875812
1.123029
1.343318
1.521106
1.622329
1.600268
1.49645
1.380303
1.251179
1.11946
1.035108
1.010451
1.012722
1.013695
0.981577
0.954324
0.973466
1.058142
1.190511
1.311524
1.394578
1.412746
1.306008
1.127246
0.957244
0.809628
0.697374
0.704188
0.866403
1.053925
1.138926
1.196675
1.277783
1.403662
1.510725
1.599295
1.676185
1.742693
1.759564
1.68462
1.527595
1.285893
0.978008
0.688939
0.502067
0.421283
0.399871
0.507582
0.715218
0.901118
1.104212
1.351104
1.582749
1.748533
1.856893
1.899718
1.901341
1.867275
1.759239
1.610325
1.43351
1.225549
1.011424
0.830391
0.725276
0.694779
0.756745
0.903389
1.112323
1.339425
1.528244
1.66483
1.731338
1.737827
1.687216
1.5675
1.409502
1.240797
1.079231
0.94524
0.865106
0.832662
0.844991
0.93421
1.063009
1.199919
1.338776
1.439999
1.480553
1.46498
1.418262
1.314119
1.153201
1.023428
0.939725
0.917015
0.918312
0.929668
0.935507
0.945889
0.987092
1.031215
1.026997
0.946538
0.815792
0.684722
0.566304
0.506609
0.513097
0.611725
0.850831
1.152876
1.368948
1.470495
1.519484
1.57626
1.668723
1.779354
1.859489
1.91594
1.950979
1.953574
1.906856
1.83029
1.707979
1.509427
1.308928
1.120758
0.941347
0.760963
0.604263
0.532563
0.544567
0.691535
0.968924
1.300817
1.597997
1.799793
1.892257
1.879928
1.818286
1.699868
1.520782
1.31931
1.121731
0.940049
0.770047
0.655847
0.606209
0.617889
0.704836
0.851155
1.035432
1.246637
1.49061
1.669372
1.768324
1.777083
1.685269
1.52792
1.349158
1.174938
1.01694
0.894304
0.829743
0.80541
0.838502
0.920908
1.022455
1.147686
1.27908
1.366028
1.361811
1.272267
1.07112
0.81709
0.614969
0.552678
0.640599
0.843693
1.057169
1.231389
1.366353
1.483148
1.577233
1.661261
1.711872
1.734258
1.716414
1.641471
1.502614
1.324825
1.145739
0.949133
0.74539
0.640275
0.721382
0.854399
1.00234
1.181426
1.348833
1.461087
1.547061
1.623303
1.641795
1.54187
1.366353
1.194404
1.037054
0.936481
0.949782
1.049058
1.104536
1.133086
1.177533
1.199919
1.247935
1.343967
1.453625
1.552576
1.632062
1.679754
1.668723
1.616165
1.52208
1.37057
1.205434
1.04257
0.8969
0.780429
0.727547
0.728195
0.78854
0.959515
1.171369
1.350131
1.50456
1.632711
1.712197
1.728743
1.67067
1.525324
1.323528
1.109078
0.916041
0.768749
0.699321
0.678557
0.652279
0.640923
0.708081
0.836231
1.023104
1.26513
1.490285
1.603837
1.629142
1.610001
1.482499
1.276809
1.067551
0.847586
0.614969
0.433612
0.359966
0.379432
0.530617
0.820659
1.198297
1.532137
1.723228
1.788114
1.787789
1.757617
1.720632
1.657043
1.572367
1.443243
1.282325
1.12238
0.979306
0.830067
0.595179
0.326874
0.212025
0.304488
0.528995
0.912797
1.48185
1.959738
2.250754
2.263731
2.077183
1.834508
1.599295
1.391983
1.233011
1.146712
1.10778
1.114918
1.185644
1.301791
1.417613
1.51624
1.590535
1.617138
1.611947
1.583722
1.481201
1.322554
1.14801
0.980603
0.835258
0.738902
0.701592
0.710676
0.793082
0.929992
1.055871
1.152876
1.245988
1.334234
1.377383
1.374788
1.326447
1.212896
1.090586
0.988714
0.942969
0.92837
0.935832
0.986767
1.057169
1.191808
1.346238
1.486717
1.61357
1.699868
1.707006
1.628818
1.520133
1.37933
1.186942
0.989687
0.829418
0.687966
0.571495
0.57409
0.663958
0.805735
1.071769
1.35662
1.583722
1.74464
1.850729
1.864355
1.777408
1.614867
1.378032
1.120758
0.880678
0.667851
0.569224
0.691859
0.936481
1.136006
1.288813
1.441945
1.613245
1.772217
1.913669
1.994128
1.998021
1.954547
1.871168
1.711872
1.509103
1.296924
1.095777
0.900793
0.727547
0.629244
0.63411
0.72268
0.867377
1.077284
1.325799
1.568149
1.726796
1.76443
1.708953
1.601241
1.442918
1.28492
1.129193
0.98839
0.864132
0.79438
0.781402
0.82293
0.918637
1.024726
1.120433
1.221332
1.334234
1.466926
1.620707
1.712521
1.69338
1.568798
1.389063
1.201217
1.018886
0.838827
0.657794
0.476761
0.376187
0.39176
0.556896
0.889762
1.37641
1.766377
1.946761
1.969796
1.911398
1.794278
1.66191
1.51332
1.341371
1.166178
1.006558
0.888789
0.826498
0.844342
0.917664
1.020184
1.126598
1.220358
1.314119
1.401716
1.571393
1.679754
1.626547
1.465304
1.264481
1.082799
1.016615
1.067551
1.143468
1.163258
1.176884
1.203488
1.245988
1.312821
1.401716
1.477957
1.512347
1.501965
1.419884
1.308279
1.181102
1.054574
0.949458
0.896575
0.911175
0.954649
1.002989
1.060738
1.144441
1.244366
1.349158
1.469197
1.57334
1.66191
1.6963
1.614867
1.469846
1.300817
1.141846
1.012073
0.934858
0.90566
0.903064
0.975737
1.104212
1.252801
1.393605
1.495801
1.521106
1.435457
1.305684
1.150605
0.97671
0.870297
0.90274
0.959191
0.96795
0.97379
0.995527
1.017913
1.078257
1.146712
1.219061
1.261886
1.265779
1.25345
1.261886
1.232687
1.147686
1.087666
1.037379
0.911499
0.735657
0.588041
0.577659
0.711649
0.950107
1.237229
1.47082
1.646013
1.772866
1.857218
1.893879
1.854298
1.74172
1.563283
1.351753
1.149308
0.975737
0.846613
0.813197
0.828445
0.844666
0.908579
1.025375
1.164232
1.31055
1.497099
1.657043
1.708628
1.685918
1.627196
1.532137
1.442918
1.329367
1.174613
1.018562
0.90566
0.838178
0.837853
0.9394
1.093505
1.269996
1.44227
1.571069
1.637902
1.641146
1.577233
1.445838
1.292382
1.137953
0.975412
0.814819
0.679855
0.607831
0.582201
0.633137
0.786593
0.986119
1.087666
1.114594
1.139575
1.115891
1.044841
1.046463
1.068849
1.043219
0.98547
0.958542
0.900469
0.860888
0.871919
0.917988
1.040948
1.283298
1.575611
1.790709
1.872142
1.867275
1.804984
1.703437
1.569771
1.402364
1.235607
1.07404
0.931939
0.784322
0.638004
0.512448
0.456646
0.573442
0.852128
1.201217
1.464007
1.620707
1.680403
1.670345
1.613245
1.492557
1.327745
1.14509
0.974439
0.851155
0.774265
0.756745
0.779131
0.843044
0.959515
1.079555
1.178831
1.260263
1.31055
1.28492
1.183698
1.08215
0.943618
0.777834
0.653252
0.593556
0.606209
0.69413
0.80833
0.918312
1.028944
1.141197
1.258317
1.395551
1.505534
1.540572
1.498072
1.436754
1.305359
1.126598
0.954973
0.808006
0.746039
0.734684
0.712298
0.667851
0.626648
0.644168
0.711649
0.823254
1.04841
1.344616
1.612596
1.814393
1.906532
1.832561
1.629467
1.351753
1.053276
0.760963
0.516991
0.38592
0.354126
0.399546
0.570197
0.805086
1.039001
1.245015
1.398147
1.489312
1.493205
1.373814
1.088315
0.694779
0.323954
0.125726
0.051431
0.022881
0.138379
0.501418
0.853102
1.205759
1.538626
1.8105
1.983422
2.051553
2.051877
1.999968
1.876035
1.679754
1.455896
1.234633
1.024077
0.833311
0.707756
0.651954
0.65163
0.732738
0.865754
1.029268
1.209976
1.362135
1.449732
1.476659
1.457842
1.375761
1.243069
1.088639
0.933885
0.795028
0.69705
0.647736
0.626
0.658443
0.765505
0.892682
1.002016
1.095452
1.16488
1.163583
1.130491
1.140224
1.130166
1.064631
1.00818
0.955946
0.845315
0.721382
0.655523
0.638652
0.723005
0.926748
1.106483
1.20803
1.31055
1.471793
1.551279
1.45914
1.250206
0.965355
0.628271
0.40052
0.397275
0.531914
0.689588
0.809303
0.906957
1.122055
1.416315
1.710899
1.967849
2.112221
2.140447
2.096973
1.988288
1.814393
1.585993
1.324176
1.073066
0.867701
0.714245
0.645465
0.677909
0.786269
0.957244
1.162609
1.361811
1.5104
1.646662
1.732636
1.745938
1.692406
1.554199
1.374139
1.183049
1.005585
0.850182
0.758043
0.749932
0.798597
0.909228
1.070471
1.250855
1.438701
1.622654
1.763781
1.815691
1.798496
1.72777
1.602539
1.428319
1.24242
1.064307
0.917988
0.83688
0.791135
0.795028
0.89106
1.027646
1.162934
1.261886
1.313146
1.315741
1.289462
1.255397
1.190835
1.094803
0.98255
0.891709
0.786269
0.681477
0.708081
0.845964
1.067875
1.350455
1.61357
1.812771
1.911722
1.929566
1.9101
1.833534
1.711224
1.457518
1.100319
0.765505
0.552354
0.50012
0.60556
0.908255
1.341371
1.722254
1.914642
1.986991
2.027869
2.049606
2.032411
1.941895
1.806931
1.654448
1.468224
1.300493
1.177209
1.126273
1.141521
1.183373
1.226198
1.277783
1.366353
1.455247
1.547061
1.651204
1.749182
1.807904
1.811149
1.775461
1.682025
1.537328
1.371219
1.207705
1.077608
0.995203
0.976386
0.984821
1.025375
1.134708
1.276161
1.428319
1.568149
1.683647
1.734907
1.720632
1.658666
1.532137
1.375437
1.212572
1.049058
0.901118
0.763559
0.615618
0.464108
0.381054
0.389164
0.550731
0.847262
1.245988
1.721281
2.063557
2.154398
2.070694
1.835481
1.54187
1.250855
0.953675
0.667527
0.455997
0.335958
0.323629
0.481627
0.770372
1.120109
1.453949
1.813744
2.076209
2.177108
2.142718
1.997372
1.769297
1.504236
1.255397
1.044192
0.86251
0.739551
0.713272
0.796326
0.926099
1.079231
1.27097
1.439674
1.442594
1.24534
0.9965
0.753826
0.538727
0.510177
0.762585
1.131788
1.394903
1.458167
1.402689
1.350131
1.365055
1.447785
1.563283
1.680403
1.774163
1.824126
1.792007
1.695326
1.554199
1.361811
1.157419
0.970221
0.844018
0.756421
0.70873
0.700294
0.745066
0.880354
1.056196
1.236255
1.400418
1.531813
1.614218
1.629142
1.582749
1.451029
1.256695
1.037703
0.808655
0.59453
0.424528
0.349259
0.352828
0.421932
0.606858
0.873541
1.158067
1.40496
1.554847
1.588588
1.536355
1.439025
1.266752
1.055871
0.887167
0.810926
0.802815
0.831689
0.860239
0.892033
0.974115
1.095777
1.263832
1.465629
1.611947
1.736529
1.786167
1.749831
1.602863
1.318337
0.930641
0.539376
0.239602
0.094581
0.041374
0.309354
0.760963
1.123353
1.378032
1.5821
1.7388
1.847485
1.908154
1.902963
1.844565
1.717388
1.521431
1.303088
1.085719
0.908255
0.790162
0.737928
0.714245
0.730791
0.816765
0.953675
1.088639
1.20511
1.292058
1.317363
1.317039
1.320608
1.289462
1.223278
1.123678
0.998123
0.872243
0.753826
0.638004
0.527048
0.463459
0.460539
0.539052
0.733062
0.967302
1.157419
1.287516
1.474388
1.649257
1.720308
1.682349
1.581451
1.433834
1.290436
1.209328
1.181751
1.183049
1.246313
1.339749
1.435457
1.525973
1.595401
1.631413
1.636604
1.60481
1.516564
1.408529
1.263508
1.104861
0.977035
0.912797
0.897873
0.910526
0.997798
1.179804
1.408204
1.63044
1.802389
1.91302
1.962658
1.957467
1.889012
1.695326
1.414044
1.112971
0.785295
0.469624
0.330767
0.415443
0.583175
0.868674
1.282974
1.683647
1.98472
2.166077
2.239723
2.230964
2.174512
2.065503
1.854298
1.546088
1.185644
0.796975
0.412848
0.168875
0.116642
0.322007
0.71976
1.261561
1.818286
2.287415
2.613794
2.75849
2.767574
2.699444
2.545663
2.322453
2.081076
1.840996
1.617787
1.439025
1.333261
1.292707
1.317039
1.398471
1.508129
1.622654
1.729067
1.79882
1.803038
1.76151
1.70733
1.573989
1.427995
1.320932
1.275512
1.239175
1.196999
1.159041
1.150281
1.201866
1.31347
1.455571
1.600917
1.717388
1.780652
1.764755
1.69338
1.584371
1.423128
1.243717
1.063982
0.893007
0.752528
0.671096
0.661363
0.729818
0.863808
1.026997
1.200568
1.38225
1.543168
1.619734
1.614543
1.570745
1.472766
1.297249
1.119136
0.93421
0.766154
0.676286
0.717489
0.815143
0.949133
1.090586
1.225874
1.378032
1.523053
1.616165
1.639524
1.632062
1.619085
1.580478
1.52208
1.396849
1.21095
1.036081
0.921557
0.869323
0.846289
0.86835
0.964057
1.09675
1.220358
1.37641
1.558092
1.68462
1.738476
1.687864
1.540572
1.346887
1.154823
1.021482
0.927397
0.864457
0.812223
0.766803
0.766478
0.814494
0.898847
0.998447
1.083773
1.140873
1.200568
1.254099
1.240473
1.184022
1.135682
1.10259
1.083448
1.03965
1.025699
1.063009
1.143468
1.255072
1.351104
1.429617
1.489961
1.512996
1.490285
1.426048
1.3391
1.235931
1.153525
1.059765
0.968924
0.89106
0.805735
0.764856
0.778807
0.818387
0.870621
0.948485
1.046463
1.12238
1.156445
1.155472
1.166827
1.180778
1.144441
1.149308
1.159041
1.094479
0.997474
0.892033
0.816116
0.798922
0.831689
0.898198
0.977683
1.065604
1.177533
1.308604
1.392307
1.454598
1.460762
1.358891
1.152552
0.871919
0.578308
0.305137
0.136757
0.094905
0.292484
0.647412
1.02505
1.363433
1.676185
1.90718
1.998021
2.014892
1.990235
1.85884
1.646013
1.385818
1.129193
0.922206
0.786269
0.723329
0.729493
0.825525
0.972817
1.129842
1.290111
1.429617
1.531488
1.557118
1.490285
1.367001
1.192133
1.011424
0.865754
0.801841
0.735333
0.679206
0.717165
0.818712
0.952702
1.091234
1.221332
1.348184
1.456869
1.506831
1.470495
1.367975
1.214843
1.031215
0.841098
0.678233
0.553002
0.47449
0.452104
0.495254
0.572793
0.705485
0.897549
1.146712
1.398796
1.617138
1.815691
1.929891
1.919184
1.784545
1.608054
1.388738
1.161636
0.958542
0.755448
0.50596
0.274965
0.136432
0.08939
0.133837
0.431341
0.933561
1.420208
1.784545
1.974013
2.038251
1.988937
1.823477
1.588913
1.341047
1.115567
0.916041
0.731764
0.553976
0.389813
0.220136
0.114371
0.218838
0.438478
0.811899
1.269347
1.677158
1.926646
1.969147
1.860787
1.662559
1.464655
1.321581
1.260588
1.233011
1.232687
1.290111
1.372841
1.448434
1.515916
1.567176
1.581126
1.561012
1.509103
1.388414
1.225874
1.061062
0.909228
0.778807
0.689264
0.664607
0.697374
0.792109
0.943943
1.103563
1.253126
1.392956
1.510725
1.574638
1.583722
1.532462
1.412097
1.263183
1.106483
0.947187
0.795353
0.660065
0.567277
0.52575
0.580579
0.719111
0.893331
1.056196
1.197648
1.306008
1.367975
1.388738
1.332287
1.19927
1.026997
0.841747
0.687317
0.601992
0.58869
0.612698
0.703539
0.880678
1.077608
1.246637
1.398471
1.503587
1.53603
1.552901
1.524026
1.426048
1.234633
0.967302
0.686668
0.501418
0.497525
0.635732
0.801517
1.001042
1.240473
1.451354
1.616165
1.740098
1.798171
1.792332
1.728743
1.643093
1.527271
1.395551
1.237553
1.105185
1.015642
0.944267
0.900469
0.893656
0.946214
1.03965
1.153525
1.275512
1.370246
1.426048
1.428319
1.39328
1.327421
1.247935
1.156121
1.047436
0.930316
0.809952
0.726573
0.687642
0.710352
0.845964
1.048734
1.255397
1.42767
1.545763
1.583722
1.56458
1.507805
1.393929
1.245015
1.091559
0.941347
0.796651
0.65974
0.532888
0.397924
0.315843
0.362237
0.495902
0.738577
1.116865
1.566851
1.89615
2.061286
2.0389
1.866951
1.64731
1.427021
1.212247
0.989363
0.783349
0.626324
0.541647
0.581877
0.738253
1.000718
1.349807
1.658341
1.822828
1.841321
1.757942
1.577558
1.282
0.924477
0.59745
0.343095
0.213323
0.323954
0.608156
0.934858
1.213545
1.399445
1.535381
1.651204
1.744316
1.7959
1.790385
1.733285
1.595077
1.407555
1.205759
1.004936
0.834933
0.724951
0.692184
0.693806
0.74539
0.856022
0.996176
1.146712
1.281027
1.391009
1.446812
1.439674
1.382574
1.273241
1.15969
1.031215
0.897549
0.7827
0.727547
0.744742
0.809628
0.927721
1.081826
1.236904
1.375761
1.489961
1.562309
1.557443
1.488988
1.371219
1.220358
1.061062
0.905011
0.77102
0.635084
0.489089
0.345691
0.239926
0.225975
0.287293
0.481952
0.82293
1.250855
1.60481
1.856245
2.002239
1.994128
1.853325
1.608054
1.306657
1.02797
0.832662
0.739551
0.770372
0.961786
1.222954
1.417288
1.537653
1.62168
1.673914
1.695326
1.695975
1.654772
1.498721
1.273241
1.021157
0.769723
0.539701
0.436207
0.473841
0.646763
0.92545
1.208679
1.45914
1.643742
1.768324
1.845214
1.867924
1.843267
1.755346
1.594104
1.398796
1.195701
1.002665
0.886518
0.846613
0.848235
0.870297
0.957244
1.090261
1.23366
1.379654
1.503263
1.575611
1.58502
1.553225
1.445514
1.277134
1.092857
0.920259
0.766154
0.695752
0.717489
0.743444
0.795028
0.916041
1.076311
1.226198
1.349482
1.447136
1.499694
1.538301
1.545763
1.465629
1.310226
1.084746
0.831689
0.606534
0.475788
0.454051
0.493956
0.584797
0.666229
0.670447
0.690886
0.782051
0.974439
1.346562
1.80174
2.063557
2.069396
2.410699
2.455471
2.146287
1.212247
1.175262
1.106483
1.110376
1.19927
1.329367
1.443243
1.523702
1.540248
1.439025
1.252801
1.074688
0.917339
0.838502
0.94524
1.133411
1.417613
1.258641
1.266103
1.217763
1.228794
1.318012
1.434159
1.542519
1.651204
1.726147
1.748209
1.72485
1.654448
1.509751
1.330665
1.168125
1.00526
0.868999
0.795353
0.792433
0.838502
0.935507
1.05944
1.194728
1.345913
1.495801
1.615192
1.665154
1.672292
1.621356
1.496774
1.326772
1.145415
0.978981
0.842395
0.763559
0.729818
0.715543
0.775238
0.895602
1.046138
1.23658
1.434483
1.622978
1.712846
1.712521
1.619085
1.469197
1.284596
1.09675
0.932912
0.79438
0.686019
0.612698
0.572793
0.558518
0.630866
0.777509
0.957244
1.177858
1.506183
1.813744
1.973365
1.925349
1.751778
1.522729
1.298546
1.104536
0.954649
0.888789
0.888789
0.9394
1.029268
1.15677
1.314768
1.485419
1.613894
1.693055
1.728418
1.706357
1.62168
1.503912
1.38517
1.26221
1.136979
1.05652
1.032512
1.047112
1.139575
1.283622
1.43351
1.566203
1.681051
1.770919
1.791358
1.743667
1.617463
1.422479
1.199595
0.974764
0.761288
0.593556
0.523155
0.553002
0.653252
0.793082
1.00234
1.284596
1.551603
1.733609
1.835481
1.89323
1.874088
1.741396
1.541546
1.287516
1.018886
0.734684
0.47449
0.307408
0.262961
0.359966
0.633461
0.964382
1.272267
1.520782
1.730041
1.891932
1.997372
2.002239
1.907829
1.75048
1.57918
1.412746
1.257343
1.115242
1.020184
0.956595
0.940374
0.930316
0.904037
0.882949
0.87711
0.889438
1.036081
1.346887
1.552576
1.632711
1.644391
1.559065
1.626871
1.39036
1.315417
1.278432
1.289787
1.34494
1.412746
1.505858
1.622005
1.720308
1.759564
1.744316
1.683647
1.559714
1.403987
1.240797
1.082475
0.951404
0.885869
0.879705
0.903713
0.988065
1.127571
1.29076
1.45914
1.603512
1.683322
1.676185
1.632711
1.551603
1.395551
1.18824
0.954324
0.721707
0.507906
0.333362
0.240575
0.308057
0.501418
0.850831
1.319634
1.682674
1.922753
2.04993
2.047659
1.971742
1.834183
1.659314
1.470495
1.255721
0.971519
0.649034
0.373916
0.178284
0.077386
0.148761
0.483574
0.984172
1.502289
1.905883
2.129741
2.226421
2.218635
2.114817
1.978555
1.819259
1.615516
1.401391
1.227171
1.121407
1.041596
0.97671
0.950107
0.973466
1.03965
1.158392
1.373814
1.62168
1.772217
1.787141
1.670994
1.508129
1.344291
1.165529
1.001691
0.913446
0.861537
0.857968
0.95984
1.103887
1.247935
1.399769
1.553225
1.684296
1.760862
1.783572
1.735556
1.622978
1.472117
1.312172
1.168449
1.048734
0.996825
0.999745
1.040299
1.132762
1.246637
1.370895
1.473091
1.524026
1.52208
1.477957
1.406258
1.297573
1.219385
1.156445
1.051654
0.918637
0.763234
0.646439
0.567277
0.6114
0.791135
1.020184
1.264157
1.492881
1.661585
1.718037
1.63628
1.470495
1.269672
1.063009
0.912148
0.837205
0.840449
0.859266
0.904686
0.976386
1.109403
1.306008
1.573664
1.853974
2.069072
2.188787
2.181974
2.06161
1.83613
1.512022
1.158716
0.861212
0.661687
0.602316
0.693157
0.820983
0.947511
1.138602
1.370246
1.599295
1.808878
1.95325
2.023651
2.036304
1.987964
1.853
1.664181
1.44746
1.23074
1.04841
0.92253
0.867701
0.865754
0.932912
1.063333
1.219709
1.381276
1.525649
1.644066
1.693704
1.686567
1.621356
1.472766
1.306008
1.136655
0.98839
0.880354
0.830067
0.82293
0.852453
0.951729
1.095128
1.249882
1.393605
1.489961
1.547385
1.532786
1.453949
1.322554
1.191484
1.08799
0.929343
0.730791
0.575713
0.562411
0.637355
0.726573
0.840773
1.014669
1.220358
1.431563
1.719659
1.975311
2.099569
2.101191
1.964929
1.762484
1.530515
1.264481
1.006882
0.826174
0.769398
0.752852
0.835582
1.022779
1.229442
1.447785
1.669372
1.866626
1.965254
1.98764
1.932811
1.79298
1.621031
1.457518
1.308604
1.194728
1.143144
1.14217
1.166827
1.240797
1.347536
1.452327
1.558741
1.653475
1.716739
1.735556
1.709601
1.624925
1.485095
1.32515
1.160338
1.020184
0.922206
0.881652
0.88814
0.941996
1.039325
1.137628
1.25053
1.377059
1.489961
1.566527
1.584371
1.533435
1.395876
1.209652
1.014993
0.854724
0.732738
0.651954
0.664282
0.750581
0.833636
0.935507
1.080853
1.220034
1.348184
1.43935
1.505534
1.599943
1.769297
1.939299
1.979529
1.857867
1.673914
1.488339
1.35078
1.266428
1.233011
1.270645
1.360188
1.468873
1.573016
1.602863
1.531488
1.43059
1.34494
1.247611
1.18824
1.244366
1.306333
1.288489
1.229442
1.204786
1.243717
1.308928
1.3962
1.494828
1.603512
1.702139
1.785194
1.819259
1.803362
1.750804
1.619409
1.441296
1.254099
1.097074
1.0111
0.968275
0.941671
0.904686
0.908255
0.967302
1.066902
1.20803
1.387116
1.580478
1.695326
1.718037
1.67878
1.560363
1.415666
1.306982
1.215492
1.131788
1.084421
1.077933
1.075986
1.09967
1.180778
1.28784
1.365379
1.408529
1.463358
1.549656
1.61357
1.591184
1.543817
1.495476
1.429617
1.32223
1.174613
1.023753
0.924152
0.896575
0.987092
1.17656
1.419559
1.632062
1.754697
1.782274
1.737827
1.59021
1.365055
1.19927
1.174289
1.247286
1.361811
1.437403
1.465953
1.464655
1.466926
1.512996
1.562958
1.568149
1.54187
1.499694
1.418586
1.340722
1.321581
1.340722
1.341696
1.294978
1.231065
1.215492
1.236904
1.280378
1.311199
1.385494
1.494503
1.605783
1.708953
1.79006
1.840023
1.838076
1.78195
1.65315
1.473091
1.283947
1.116865
0.981252
0.91961
0.944267
1.012722
1.11654
1.280703
1.448758
1.613894
1.771243
1.895176
1.953899
1.950005
1.892257
1.756968
1.562309
1.340398
1.09675
0.844342
0.645465
0.535808
0.501093
0.615293
0.848235
1.111674
1.347211
1.530839
1.649581
1.693704
1.707006
1.738476
1.708304
1.609676
1.479255
1.35078
1.232038
1.143792
1.080853
0.992932
0.892358
0.844018
0.83688
0.860239
0.972168
1.233011
1.527595
1.714143
1.794927
1.819259
1.814068
1.73588
1.600917
1.460438
1.380628
1.366353
1.359864
1.309253
1.214194
1.051005
0.770696
0.524777
0.479032
0.644817
1.006233
1.497747
1.91594
2.193978
2.181325
1.967849
1.7534
1.623951
1.556794
1.556794
1.617787
1.703437
1.797198
1.884146
1.947086
1.957792
1.915616
1.823477
1.654448
1.46498
1.274863
1.095128
0.941671
0.846289
0.821956
0.835258
0.907282
1.034783
1.186617
1.346562
1.500018
1.61876
1.678456
1.693055
1.651853
1.542195
1.386792
1.217114
1.059765
0.934858
0.876785
0.858941
0.875487
0.989687
1.165205
1.349158
1.521106
1.662559
1.75048
1.765404
1.730689
1.614867
1.412097
1.153525
0.878732
0.602965
0.366779
0.270098
0.279507
0.407657
0.695428
1.051005
1.392956
1.651853
1.841645
1.940272
1.990559
1.964929
1.840672
1.67878
1.539924
1.451354
1.368948
1.281676
1.225225
1.181426
1.167476
1.194404
1.289138
1.453949
1.657043
1.805958
1.834183
1.795576
1.701166
1.51916
1.321581
1.165529
1.037703
0.940374
0.90274
0.917664
0.993581
1.144117
1.270321
1.342993
1.350455
1.282
1.197648
1.188564
1.248259
1.333585
1.434483
1.501641
1.465304
1.341696
1.233011
1.199595
1.22782
1.306008
1.436754
1.589237
1.737503
1.865329
1.945463
1.950005
1.908478
1.822504
1.664505
1.472766
1.27389
1.09675
0.968275
0.894629
0.879381
0.891385
0.959515
1.082475
1.21387
1.329692
1.427021
1.496774
1.523053
1.496774
1.419884
1.324825
1.202515
1.05944
0.916366
0.787566
0.698672
0.652603
0.690561
0.827472
0.984496
1.131464
1.280054
1.430914
1.537653
1.587291
1.595726
1.521755
1.360513
1.151579
0.912148
0.694779
0.621782
0.667851
0.753501
0.866728
1.033161
1.25345
1.559714
1.917238
2.237128
2.393828
2.396424
2.320831
2.155695
1.933459
1.69046
1.451678
1.235931
1.054574
0.944591
0.897549
0.935507
1.031863
1.175587
1.360188
1.527595
1.640497
1.682025
1.679754
1.620058
1.48185
1.315092
1.161312
1.012398
0.884247
0.823254
0.824552
0.873541
0.982874
1.115891
1.261237
1.394254
1.478606
1.470171
1.361486
1.206083
1.015642
0.842395
0.774589
0.852128
1.002989
1.108754
1.171694
1.203488
1.253775
1.304386
1.362459
1.405933
1.396849
1.324501
1.265779
1.256695
1.280054
1.324825
1.441296
1.524026
1.479255
1.346238
1.187591
1.046787
0.947511
0.952702
1.068849
1.23366
1.417613
1.60481
1.781301
1.897123
1.870844
1.700842
1.453949
1.185644
0.935507
0.772967
0.710676
0.733386
0.830716
0.938427
1.069822
1.249557
1.460113
1.647959
1.780328
1.845214
1.84716
1.803038
1.699544
1.537004
1.345589
1.14509
0.947836
0.782376
0.71976
0.731764
0.802166
0.979306
1.211599
1.422155
1.562309
1.609028
1.583722
1.54771
1.50456
1.391658
1.247935
1.104212
0.957893
0.801193
0.645465
0.540998
0.504013
0.570197
0.777185
1.107456
1.435781
1.692082
1.820233
1.7959
1.675212
1.488663
1.26513
1.045814
0.85959
0.700294
0.600694
0.633461
0.750257
0.890411
1.083773
1.277458
1.426372
1.535057
1.618112
1.6392
1.592481
1.561985
1.524351
1.452003
1.289462
1.114594
0.987416
0.899495
0.876136
0.861212
0.889114
0.993581
1.143792
1.308604
1.469846
1.617138
1.731014
1.789736
1.788114
1.691758
1.523378
1.332612
1.135682
0.967626
0.850182
0.781727
0.777509
0.890411
1.068524
1.270645
1.512022
1.739774
1.886092
1.92178
1.863058
1.741071
1.57626
1.367326
1.136979
0.921881
0.741822
0.643843
0.661687
0.74247
0.917988
1.123353
1.336505
1.532786
1.677807
1.742693
1.713495
1.570096
1.285245
0.915393
0.545541
0.244468
0.099772
0.113073
0.450158
0.788215
1.01986
1.219709
1.417937
1.622654
1.808229
1.932162
1.99575
1.97012
1.83029
1.593779
1.371543
1.218736
1.072093
0.927721
0.776211
0.580255
0.38884
0.292808
0.309679
0.511151
1.012073
1.520458
1.871817
2.048957
2.081725
2.011647
1.870195
1.699544
1.5104
1.324825
1.173965
1.084097
1.042245
1.051978
1.143144
1.280054
1.430266
1.574962
1.688189
1.745938
1.732312
1.658341
1.491908
1.25053
0.998447
0.772318
0.603938
0.573766
0.74247
0.924152
1.0536
1.206408
1.359864
1.500667
1.628169
1.71025
1.709926
1.640822
1.492232
1.245015
1.004287
0.797299
0.566953
0.329145
0.210078
0.229544
0.329469
0.564033
0.973141
1.465629
1.873764
2.091458
2.170295
2.176135
2.133309
2.018136
1.802713
1.529866
1.205434
0.883923
0.626324
0.47741
0.435234
0.494605
0.712623
1.000394
1.305684
1.586317
1.802064
1.960063
2.031438
2.014567
1.912047
1.743342
1.549656
1.342669
1.131788
0.964382
0.87711
0.850182
0.886843
0.997149
1.139899
1.284271
1.420208
1.525973
1.566527
1.541546
1.480228
1.356944
1.216465
1.123029
1.057494
0.987416
0.945889
0.952053
0.97963
1.062684
1.180129
1.298546
1.419235
1.521431
1.543492
1.453949
1.28784
1.051329
0.758368
0.533861
0.450806
0.476112
0.49428
0.516666
0.615618
0.818387
1.135033
1.443243
1.680727
1.853649
1.974987
2.024625
2.012621
1.951628
1.816988
1.605459
1.331963
1.046787
0.774589
0.526399
0.377485
0.315519
0.288915
0.323305
0.425176
0.720409
1.223278
1.755022
2.144989
2.303961
2.308503
2.182948
1.981151
1.762484
1.545763
1.344291
1.192782
1.115242
1.086044
1.124002
1.209976
1.267725
1.287516
1.304386
1.329043
1.335532
1.429617
1.575287
1.548034
1.396525
1.219385
1.068524
0.94524
0.875812
0.872243
0.914419
1.016291
1.154499
1.290111
1.410475
1.507156
1.5675
1.577558
1.548683
1.460762
1.321581
1.163907
1.018562
0.908255
0.840124
0.824227
0.843369
0.905011
1.03089
1.17656
1.324825
1.458816
1.54479
1.56458
1.521755
1.42767
1.256046
1.028295
0.767452
0.538403
0.358668
0.211376
0.179257
0.305461
0.557544
0.880354
1.305035
1.698895
1.954223
2.104111
2.147585
2.084645
1.922104
1.675212
1.39036
1.082799
0.752203
0.493956
0.373267
0.415119
0.552029
0.699321
0.863808
1.023428
1.103887
1.15677
1.281351
1.466602
1.64731
1.752102
1.774488
1.716414
1.574638
1.429292
1.301466
1.215816
1.152552
1.116865
1.139899
1.208354
1.325474
1.464331
1.627845
1.756968
1.81342
1.791034
1.659963
1.473091
1.286542
1.118487
0.97963
0.881327
0.833636
0.810601
0.834285
0.923503
1.058467
1.20511
1.35078
1.469846
1.527595
1.525973
1.469522
1.345589
1.212247
1.104861
1.003638
0.89982
0.823254
0.786269
0.787242
0.848235
0.943294
1.062684
1.194079
1.29952
1.326447
1.281351
1.187915
1.055223
0.867377
0.656172
0.442047
0.258743
0.176013
0.218513
0.368076
0.632164
0.960164
1.288489
1.591833
1.87863
2.090484
2.228693
2.302014
2.298121
2.164131
1.951952
1.709601
1.45914
1.189862
0.926423
0.739226
0.638328
0.641248
0.776211
0.996176
1.25637
1.51624
1.702139
1.783247
1.788438
1.733609
1.594104
1.430914
1.27097
1.113945
0.980279
0.90566
0.883274
0.889114
0.959515
1.068849
1.198297
1.339749
1.451354
1.486068
1.441621
1.362135
1.23074
1.074688
0.969897
0.884896
0.76291
0.633137
0.590637
0.652927
0.832662
1.08507
1.30763
1.486717
1.629142
1.734583
1.762159
1.71609
1.555172
1.255397
0.921557
0.619835
0.343744
0.178933
0.257121
0.436856
0.643194
0.938752
1.303088
1.612921
1.859813
2.007754
2.064205
2.03306
1.912047
1.720956
1.476984
1.244042
1.031539
0.819361
0.615618
0.47157
0.416092
0.461513
0.701592
1.047761
1.379654
1.639849
1.781625
1.815691
1.791358
1.757942
1.660288
1.516564
1.386143
1.254748
1.119136
0.986119
0.914095
0.904037
0.949133
1.071769
1.232038
1.393605
1.53311
1.627196
1.642444
1.591508
1.497099
1.31931
1.079555
0.830391
0.630542
0.483574
0.396951
0.452753
0.602965
0.797624
1.052303
1.294329
1.472117
1.573016
1.605459
1.583397
1.522404
1.482499
1.444865
1.314119
1.065929
0.773616
0.510826
0.382676
0.386893
0.562087
0.902091
1.271943
1.584695
1.805633
1.938975
1.992506
1.980502
1.915291
1.765404
1.543168
1.297573
1.067227
0.882625
0.781078
0.778482
0.812548
0.872243
0.987741
1.143468
1.318337
1.489637
1.645364
1.739449
1.766377
1.743018
1.644066
1.478606
1.26221
1.023428
0.810926
0.630542
0.514071
0.454051
0.454051
0.548785
0.723653
0.918637
1.104861
1.263508
1.3537
1.38225
1.368948
1.31347
1.278432
1.267401
1.243069
1.196675
1.154174
1.134384
1.139575
1.194079
1.289462
1.411449
1.539924
1.627845
1.655421
1.631089
1.553874
1.379005
1.126273
0.863808
0.581877
0.338553
0.18315
0.127348
0.255823
0.628595
1.061062
1.358242
1.59605
1.865329
2.106382
2.225773
2.228044
2.164455
2.01619
1.79882
1.539924
1.258966
0.993256
0.768425
0.594854
0.499147
0.548785
0.711649
0.929668
1.195053
1.457193
1.665479
1.774488
1.811797
1.777408
1.650879
1.469197
1.252153
1.013046
0.80249
0.670771
0.615293
0.625026
0.681153
0.750581
0.839476
0.977035
1.209003
1.510076
1.772541
1.955845
2.006457
1.908154
1.710575
1.47082
1.256046
1.080853
0.971844
0.930641
0.947511
1.036406
1.15969
1.29952
1.433185
1.538626
1.592481
1.589562
1.534084
1.405933
1.21679
0.974439
0.696077
0.414146
0.18607
0.078035
0.043969
0.256148
0.698997
1.204461
1.605783
1.856893
1.990235
2.012621
1.960063
1.840347
1.645039
1.426048
1.21095
0.994229
0.705485
0.386569
0.183475
0.113722
0.212998
0.542621
1.070795
1.544466
1.856245
2.039873
2.097298
2.056419
1.930864
1.72193
1.487041
1.246313
1.003962
0.78854
0.663958
0.632813
0.714245
0.894304
1.081177
1.250855
1.449083
1.666452
1.826397
1.89907
1.869222
1.755995
1.626871
1.463682
1.290111
1.100319
0.936805
0.84856
0.82293
0.87127
0.997474
1.157094
1.309901
1.442594
1.541546
1.572691
1.563283
1.518511
1.410151
1.266103
1.119136
0.988714
0.86835
0.786918
0.767127
0.803139
0.912148
1.049058
1.167476
1.229767
1.246962
1.251828
1.264805
1.331314
1.389712
1.36473
1.252477
1.056196
0.796975
0.540674
0.358343
0.246739
0.166604
0.203914
0.347313
0.559816
0.916041
1.450056
1.938326
2.174188
2.238101
2.16997
2.019109
1.838401
1.64212
1.452976
1.27389
1.105834
0.978657
0.907931
0.87711
0.868999
0.898522
0.973141
1.097399
1.254424
1.443243
1.629467
1.706681
1.695326
1.599619
1.445514
1.287191
1.165529
1.104212
1.100967
1.166503
1.270645
1.386143
1.493854
1.578855
1.619409
1.60481
1.543817
1.440323
1.314119
1.168449
1.024402
0.914095
0.82001
0.770696
0.771994
0.83396
0.97087
1.128869
1.289787
1.444541
1.575611
1.652501
1.657692
1.598321
1.454274
1.261561
1.050681
0.818712
0.601992
0.460539
0.441398
0.487143
0.6114
0.834285
1.076959
1.258641
1.3962
1.493854
1.556145
1.65023
1.735231
1.67586
1.475686
1.209652
0.932263
0.69705
0.520884
0.39176
0.353153
0.463784
0.645141
0.885545
1.158716
1.357593
1.519484
1.643417
1.740422
1.79006
1.804984
1.797198
1.706357
1.515267
1.311524
1.160338
1.058142
0.961137
0.863483
0.778158
0.72268
0.71684
0.794055
0.951404
1.179155
1.41891
1.602539
1.698246
1.663532
1.564256
1.436105
1.318012
1.258966
1.250855
1.293355
1.39328
1.520133
1.644715
1.754373
1.830939
1.845863
1.812771
1.73588
1.575935
1.373166
1.146388
0.913446
0.7256
0.616591
0.573117
0.59453
0.726898
0.926423
1.139899
1.329043
1.476659
1.587615
1.659314
1.683322
1.630764
1.496125
1.322879
1.137628
0.961462
0.816116
0.735982
0.678882
0.573442
0.482601
0.471895
0.525101
0.637679
0.947511
1.351429
1.671643
1.878955
1.879279
1.732636
1.555496
1.401067
1.248584
1.131464
1.09383
1.095777
1.146063
1.257343
1.363108
1.406582
1.374788
1.287191
1.168125
1.06528
1.043543
1.096425
1.16488
1.174289
1.099994
0.953675
0.831689
0.818712
0.901118
1.051005
1.235282
1.429941
1.620383
1.793629
1.919184
1.960387
1.929566
1.828019
1.652826
1.43351
1.213221
0.989687
0.745066
0.511151
0.266529
0.105611
0.04332
0.019637
0.113398
0.729818
1.506183
2.073938
2.35003
2.37858
2.23583
2.026896
1.80758
1.582749
1.300493
0.956595
0.65163
0.453078
0.403764
0.528021
0.823578
1.248259
1.672292
2.028194
2.193329
2.206956
2.122928
1.941895
1.721281
1.484121
1.251504
1.043543
0.878407
0.78562
0.754474
0.810277
0.933236
1.092857
1.263508
1.417288
1.537977
1.584046
1.529542
1.34202
1.022131
0.617564
0.264258
0.104962
0.043969
0.03813
0.408306
0.909877
1.337803
1.659639
1.880901
2.029167
2.119683
2.157966
2.141096
2.062908
1.888688
1.656719
1.411124
1.185969
1.008829
0.89982
0.867701
0.884896
0.946862
1.064307
1.205434
1.352402
1.490285
1.612272
1.671318
1.652501
1.571393
1.418586
1.238851
1.057169
0.883598
0.730791
0.633137
0.596152
0.577984
0.570522
0.570197
0.596801
0.670771
0.787566
1.038677
1.419559
1.785518
1.999644
2.024625
1.894203
1.660612
1.403662
1.183373
1.040623
0.966328
0.921557
0.904037
0.868999
0.828769
0.806059
0.865106
1.017588
1.239175
1.532462
1.731663
1.782923
1.694353
1.533435
1.368299
1.223278
1.135357
1.110052
1.151903
1.259939
1.391009
1.518187
1.631413
1.711548
1.731338
1.692731
1.609676
1.461735
1.306008
1.157094
1.014993
0.902091
0.83688
0.827147
0.853102
0.92837
1.052303
1.198621
1.353375
1.491259
1.587939
1.62168
1.608054
1.54187
1.407555
1.242095
1.059765
0.838502
0.600694
0.436207
0.352828
0.334984
0.44594
0.643194
0.881652
1.144766
1.367326
1.523053
1.602863
1.632062
1.583397
1.461411
1.282325
1.066902
0.855697
0.714894
0.654225
0.63411
0.620809
0.651305
0.744742
0.869648
1.015642
1.264157
1.565878
1.828668
1.994777
1.982773
1.845863
1.653475
1.435457
1.221656
0.994229
0.616591
0.245766
0.097176
0.040401
0.018339
0.191586
0.958866
1.769297
2.283846
2.461959
2.441196
2.305583
2.106706
1.881226
1.661585
1.451354
1.260263
1.124651
1.061711
1.09675
1.186617
1.285893
1.337478
1.350131
1.338451
1.298222
1.277458
1.305359
1.291084
1.233984
1.155472
1.080528
1.023753
1.014344
1.038677
1.092857
1.194728
1.323528
1.463682
1.597672
1.701166
1.745613
1.733285
1.671643
1.53603
1.369272
1.197648
1.032837
0.886194
0.783349
0.739226
0.75415
0.854399
1.01402
1.201217
1.372841
1.507805
1.611299
1.655097
1.638875
1.558416
1.3962
1.172667
0.890736
0.601667
0.346664
0.16336
0.074466
0.135783
0.353801
0.643194
0.943294
1.225874
1.511049
1.787465
1.976933
2.021056
1.906856
1.647959
1.289138
0.945889
0.681477
0.510502
0.523155
0.745066
1.010775
1.230091
1.383872
1.507805
1.603837
1.673589
1.695975
1.659963
1.555821
1.361811
1.129193
0.913446
0.761612
0.711325
0.740524
0.829094
0.966004
1.156445
1.354997
1.541221
1.695975
1.797522
1.844565
1.826072
1.761835
1.6392
1.451354
1.254099
1.065929
0.894629
0.764207
0.716192
0.730467
0.796326
0.929668
1.097074
1.277783
1.448758
1.588588
1.671967
1.676834
1.608703
1.441945
1.192133
0.949133
0.745715
0.586094
0.502716
0.554625
0.639301
0.747337
0.923179
1.101616
1.270321
1.435781
1.589237
1.664505
1.675212
1.640173
1.518511
1.358566
1.171045
0.966004
0.783024
0.673042
0.641248
0.606209
0.614969
0.678233
0.778158
0.926423
1.114269
1.347211
1.577882
1.785843
1.877333
1.755671
1.469846
1.097399
0.711974
0.426799
0.362561
0.50304
0.766154
1.147361
1.535057
1.82737
1.986991
2.071019
2.098595
2.075885
2.00159
1.854298
1.653475
1.434483
1.216465
1.022455
0.86543
0.79146
0.78562
0.844342
0.973466
1.120758
1.272592
1.418262
1.538301
1.598646
1.600917
1.542195
1.39912
1.22198
1.038677
0.852128
0.678557
0.559816
0.519262
0.544567
0.638652
0.784971
0.95108
1.1107
1.261561
1.37641
1.435781
1.476984
1.488663
1.425724
1.27908
1.100319
0.946214
0.800544
0.684722
0.595503
0.53159
0.522506
0.581228
0.702565
0.875163
1.115567
1.416639
1.636604
1.712846
1.617138
1.428643
1.232038
1.055223
0.911824
0.897873
1.035108
1.143468
1.154823
1.145739
1.170396
1.240149
1.269347
1.252477
1.27908
1.373814
1.482824
1.570096
1.613245
1.595401
1.512347
1.34786
1.15677
0.994229
0.826498
0.74831
0.824876
1.001367
1.228469
1.528568
1.809202
1.970769
2.003537
1.920158
1.726796
1.503587
1.278756
1.073391
0.906957
0.820659
0.80541
0.829743
0.928045
1.078582
1.244366
1.395551
1.499694
1.548034
1.519484
1.447785
1.353375
1.233336
1.102914
0.971519
0.845964
0.74539
0.698997
0.711649
0.779456
0.909877
1.064307
1.225225
1.380628
1.504236
1.539924
1.515267
1.456545
1.341047
1.194728
1.037379
0.883923
0.746688
0.659416
0.64579
0.704188
0.832987
1.027321
1.219385
1.32807
1.340398
1.30763
1.232687
1.133735
1.130815
1.251179
1.352726
1.315417
1.134708
0.884572
0.691859
0.5543
0.47157
0.532563
0.668176
0.851155
1.055223
1.29952
1.572367
1.773839
1.891283
1.913993
1.815691
1.649581
1.451354
1.27097
1.135682
1.071444
1.021806
1.00234
1.058467
1.148983
1.291409
1.42475
1.507805
1.554847
1.552901
1.473415
1.296275
1.05944
0.798597
0.57993
0.417714
0.372943
0.47157
0.60264
0.7827
1.045814
1.337478
1.590859
1.77611
1.885443
1.895825
1.841321
1.739449
1.580802
1.417613
1.270645
1.141521
1.027321
0.941996
0.899495
0.905984
0.996176
1.11946
1.25345
1.365055
1.43935
1.45622
1.406258
1.320283
1.196026
1.036406
0.900469
0.803788
0.732413
0.672718
0.67726
0.721707
0.793082
0.91085
1.053925
1.258966
1.524026
1.781625
1.931188
1.950654
1.828668
1.503587
1.06236
0.613996
0.258743
0.10334
0.09231
0.455349
0.845964
1.149308
1.365704
1.529542
1.640497
1.700517
1.729716
1.722254
1.692731
1.647959
1.546088
1.414044
1.265779
1.075662
0.893656
0.739875
0.574739
0.339202
0.149085
0.063435
0.08355
0.403439
0.949782
1.581126
2.099244
2.314018
2.253025
2.069072
1.833859
1.590859
1.378032
1.217763
1.121731
1.072742
1.076635
1.154499
1.267401
1.378032
1.453625
1.485095
1.468549
1.414693
1.342345
1.277134
1.19343
1.046787
0.900469
0.781727
0.708405
0.698672
0.746039
0.86543
1.040948
1.218736
1.396525
1.540897
1.643417
1.682674
1.667425
1.600592
1.458167
1.279729
1.092857
0.91085
0.746039
0.627946
0.565655
0.53451
0.567277
0.663309
0.757394
0.830391
0.894304
1.006558
1.169747
1.306982
1.294653
1.12238
0.841098
0.428745
0.166929
0.066031
0.027748
0.209754
0.729169
1.313146
1.821206
2.156993
2.354897
2.469746
2.480127
2.396424
2.252376
2.028194
1.750804
1.440323
1.107456
0.769074
0.472543
0.269449
0.157196
0.183475
0.370996
0.652603
1.010775
1.363757
1.623951
1.808553
1.945788
1.966227
1.852027
1.682674
1.486068
1.274214
1.077284
0.941671
0.875487
0.861212
0.921881
1.036406
1.17364
1.317688
1.438376
1.497099
1.481201
1.42183
1.322879
1.168449
1.002016
0.835907
0.704512
0.628595
0.615942
0.649359
0.732413
0.897549
1.070795
1.233984
1.378681
1.492881
1.559714
1.55355
1.464331
1.239175
0.935183
0.630542
0.381378
0.230517
0.248361
0.417714
0.630866
0.867701
1.174613
1.495152
1.762808
1.953899
2.035655
1.988613
1.848783
1.661585
1.403013
1.098372
0.799246
0.576362
0.444967
0.470921
0.627946
0.768425
0.935832
1.144117
1.364406
1.539924
1.65899
1.734258
1.753075
1.733609
1.659963
1.523378
1.357268
1.174289
1.004611
0.878407
0.81709
0.785944
0.785944
0.828445
0.893656
0.993256
1.114594
1.217438
1.269023
1.282649
1.282325
1.217114
1.124002
1.06236
1.026348
0.978657
0.938427
0.936481
0.963408
1.049058
1.186942
1.321257
1.446812
1.555821
1.626871
1.647635
1.645364
1.632711
1.506183
1.286542
1.016615
0.733062
0.468326
0.313248
0.360615
0.461837
0.647088
0.854724
1.01402
1.129842
1.264157
1.458491
1.599619
1.659639
1.629791
1.509427
1.330341
1.108429
0.890087
0.731764
0.702565
0.813845
1.005909
1.221656
1.404635
1.553225
1.670994
1.724525
1.638875
1.437728
1.129193
0.753501
0.389164
0.155249
0.063435
0.082577
0.456322
0.870945
1.172018
1.391009
1.634982
1.858516
2.032411
2.164131
2.230315
2.207929
2.11871
1.979204
1.77903
1.554199
1.327096
1.11362
0.941023
0.840773
0.804761
0.803788
0.86543
0.986443
1.146712
1.308279
1.442594
1.537004
1.573664
1.564256
1.491583
1.352402
1.171694
0.97963
0.801193
0.657145
0.576362
0.542621
0.536132
0.604587
0.726898
0.881003
1.052952
1.225225
1.394578
1.503263
1.525
1.452327
1.334234
1.194404
1.039974
0.934534
0.842071
0.699321
0.520559
0.41739
0.453078
0.57701
0.79957
1.14801
1.476659
1.68462
1.76151
1.734907
1.627845
1.495476
1.357268
1.223603
1.117838
1.038028
0.998447
1.010775
1.0682
1.132437
1.21095
1.313795
1.421182
1.531488
1.613894
1.645364
1.592806
1.465953
1.295626
1.104861
0.927721
0.793731
0.735333
0.709703
0.7256
0.834933
1.012722
1.246962
1.459789
1.609028
1.691109
1.706357
1.646986
1.462709
1.216465
0.976061
0.782376
0.687966
0.626324
0.539376
0.464433
0.460864
0.562411
0.775238
1.134059
1.47601
1.664181
1.654772
1.518511
1.329692
1.121731
0.92545
0.777509
0.715543
0.772318
0.890411
1.003638
1.111998
1.254099
1.417288
1.592481
1.755995
1.8676
1.917887
1.909776
1.858516
1.746587
1.564256
1.353375
1.150605
0.955298
0.797948
0.711974
0.689588
0.719111
0.817414
0.950431
1.101292
1.258317
1.389387
1.469846
1.501316
1.492232
1.397498
1.21095
0.99942
0.821307
0.686344
0.647412
0.68829
0.729493
0.799246
0.912797
1.034135
1.149957
1.259939
1.335856
1.351104
1.338127
1.303088
1.19927
1.105834
1.037703
0.892033
0.706783
0.550731
0.491036
0.44886
0.406684
0.432963
0.564033
0.768101
1.052952
1.466278
1.844565
2.050579
2.041171
1.862084
1.615841
1.333261
1.038028
0.770696
0.607831
0.55722
0.619835
0.821632
1.087666
1.291733
1.444865
1.56458
1.640497
1.712846
1.812122
1.843592
1.750804
1.56458
1.343967
1.12822
0.957569
0.855697
0.811574
0.830391
0.92837
1.070146
1.218736
1.358566
1.464007
1.507805
1.495476
1.441621
1.315092
1.149957
0.98255
0.830716
0.69413
0.606858
0.581228
0.604587
0.698672
0.841422
0.974115
1.03673
1.030566
0.989363
0.907606
0.829743
0.844666
0.884572
0.906308
0.961786
1.012398
1.018886
1.042894
1.053925
1.038352
0.994554
0.96795
0.968924
0.999745
1.053925
1.142819
1.249557
1.342993
1.39328
1.494503
1.549656
1.500667
1.395227
1.29952
1.23074
1.182075
1.188888
1.262859
1.367001
1.447785
1.465629
1.431563
1.354024
1.257992
1.154174
1.047761
0.993905
0.992607
0.981252
0.944591
0.914419
0.909877
0.918961
0.980279
1.080204
1.20219
1.328394
1.440647
1.525973
1.528568
1.452976
1.317363
1.113945
0.858941
0.566304
0.290537
0.123779
0.055324
0.118589
0.391436
0.801841
1.184346
1.490934
1.715117
1.88155
1.980178
2.00159
1.949681
1.80466
1.600917
1.369597
1.12822
0.899171
0.719111
0.613671
0.560789
0.570846
0.645465
0.765505
0.938427
1.138602
1.32223
1.494179
1.631089
1.701815
1.638226
1.474064
1.277458
1.125624
0.990336
0.872568
0.795677
0.76291
0.80833
0.890736
0.971844
1.038028
1.055223
1.047436
1.031539
1.067875
1.121082
1.070471
0.907931
0.735657
0.640599
0.617889
0.663958
0.82001
1.028944
1.22198
1.302764
1.322879
1.319634
1.285245
1.224251
1.158716
1.085719
0.996825
0.911175
0.86835
0.868026
0.854399
0.856995
0.999745
1.232687
1.420857
1.57042
1.657692
1.699544
1.748858
1.812771
1.856893
1.845214
1.763133
1.608379
1.421182
1.224576
1.03089
0.878732
0.795353
0.77102
0.779131
0.835582
0.958542
1.116216
1.280378
1.417613
1.512671
1.549008
1.534733
1.455247
1.296924
1.109403
0.917339
0.739875
0.598423
0.516991
0.49428
0.516991
0.607183
0.731115
0.874839
1.062036
1.27908
1.431888
1.48477
1.489312
1.418262
1.271618
1.09383
0.917988
0.763234
0.652279
0.630542
0.600369
0.560464
0.576037
0.599396
0.649359
0.798273
1.050356
1.252153
1.45914
1.661261
1.732312
1.661585
1.535057
1.380303
1.240797
1.136979
1.098696
1.084746
1.1107
1.210625
1.360188
1.500992
1.648284
1.780003
1.816988
1.753075
1.616814
1.415342
1.196999
0.985794
0.799895
0.653252
0.575713
0.561762
0.588041
0.682451
0.827796
0.989363
1.143468
1.281027
1.378032
1.43351
1.454274
1.410151
1.301466
1.160014
1.007207
0.86543
0.740524
0.68018
0.656496
0.668825
0.747337
0.868999
1.005909
1.160014
1.322554
1.459789
1.537004
1.543168
1.472766
1.386467
1.257992
1.094803
0.920583
0.757719
0.640275
0.580255
0.615618
0.740848
0.912473
1.087666
1.263508
1.403662
1.472117
1.535381
1.60481
1.562309
1.403013
1.190511
0.975088
0.824552
0.767776
0.711325
0.652603
0.618862
0.607831
0.64287
0.710027
0.838502
1.092208
1.300817
1.356295
1.256695
1.094803
0.964706
0.906633
0.914095
0.974439
1.027646
1.122055
1.305684
1.531164
1.722254
1.860138
1.927944
1.953574
1.921455
1.837428
1.723228
1.553874
1.358242
1.161636
0.980603
0.839476
0.751879
0.735982
0.770372
0.867377
1.00818
1.157743
1.304062
1.439674
1.539924
1.563283
1.53895
1.465304
1.327421
1.166503
0.995203
0.840124
0.716192
0.661363
0.672069
0.735333
0.860564
1.00234
1.129842
1.257992
1.373166
1.443892
1.451678
1.428319
1.351753
1.205434
1.010451
0.823254
0.681802
0.56598
0.507258
0.456322
0.430692
0.472219
0.552678
0.682775
0.893656
1.111674
1.283947
1.404311
1.452003
1.439674
1.371868
1.260912
1.138602
1.055223
0.969573
0.829743
0.696077
0.660389
0.727871
0.862835
1.097074
1.408853
1.704086
1.809526
1.750155
1.568149
1.32223
1.070471
0.858293
0.741173
0.73728
0.774589
0.828769
0.92253
1.088639
1.314443
1.547385
1.743018
1.886092
1.940272
1.911722
1.816015
1.662883
1.4533
1.217438
0.982225
0.781727
0.635084
0.582201
0.618213
0.749608
0.946538
1.154499
1.338451
1.493854
1.608054
1.663208
1.653475
1.580478
1.440972
1.279405
1.100967
0.918637
0.750257
0.587717
0.424528
0.226949
0.091985
0.037481
0.017041
0.039103
0.434585
0.996176
1.421506
1.705708
1.871817
1.879279
1.895176
2.272166
2.057717
1.298222
1.134059
1.078582
1.035432
1.013371
0.982874
0.95692
0.928694
0.881976
0.875163
0.994554
1.203812
1.414368
1.5675
1.766377
2.537876
2.446711
1.20803
1.155148
1.098696
1.09091
1.148659
1.241446
1.358242
1.478282
1.575935
1.60189
1.568474
1.497747
1.336505
1.143144
0.980928
0.832014
0.695752
0.580904
0.550407
0.59745
0.748635
0.974439
1.237878
1.456545
1.607081
1.698246
1.723552
1.688513
1.592481
1.422479
1.222305
1.014993
0.817414
0.652927
0.554949
0.529319
0.555598
0.666229
0.841747
1.047112
1.237229
1.397174
1.511698
1.541546
1.489961
1.360188
1.175587
0.94816
0.693481
0.431989
0.199696
0.080955
0.038778
0.1692
0.48617
0.905335
1.300817
1.619085
1.854947
1.977582
1.969471
1.903612
1.754697
1.545439
1.512996
1.167151
0.792109
0.662985
0.600694
0.592583
0.670447
0.844666
1.046138
1.235282
1.398147
1.542195
1.652826
1.73296
1.726796
1.607081
1.685918
1.844241
1.455571
0.750257
0.602965
0.588041
0.667202
0.853426
1.095452
1.314443
1.468224
1.542843
1.541221
1.46206
1.331963
1.184346
1.063009
0.957244
0.822281
1.135033
0.711649
0.687966
0.703539
0.764856
0.898847
1.058142
1.21679
1.354673
1.454922
1.488339
1.456545
1.370895
1.205434
1.001367
0.792757
0.596801
0.540998
0.526399
0.621782
0.782051
0.975737
1.172991
1.347211
1.501965
1.639849
1.739125
1.755671
1.702139
1.59021
1.418586
1.369272
1.328718
0.81125
0.404737
0.230517
0.180555
0.263285
0.460215
0.772318
1.13925
1.510725
1.791358
1.929242
1.922753
1.816339
1.626547
1.498721
1.604161
1.241446
0.751879
0.376836
0.362237
0.443345
0.587068
0.740199
0.849857
0.920583
0.944267
0.922854
0.854399
0.747013
0.664931
0.647412
0.721707
1.60189
3.523178
4.631119
4.182427
3.676635
2.581026
1.518187
1.617787
1.728743
1.835157
1.915616
1.96428
1.951303
1.877982
1.766053
2.436654
3.348309
3.62505
3.377832
2.678031
1.221007
0.648385
0.670771
0.772318
0.913446
1.072093
1.232362
1.361162
1.43059
1.43935
1.3962
1.307306
1.625249
2.470719
2.887615
2.864255
2.046686
0.879705
0.599721
0.670122
0.797299
0.955298
1.120433
1.264481
1.369597
1.400742
1.372517
1.313146
1.201866
2.269895
3.123801
3.563408
3.57671
2.395775
1.025699
0.547163
0.576037
0.658443
0.765505
0.883923
0.968924
1.007531
1.080204
1.186293
1.248259
2.240372
4.227199
5.312756
5.423389
4.706388
2.741295
0.74539
0.508231
0.566953
0.748635
1.029917
1.315417
1.524675
1.645364
1.709277
1.723228
3.286018
4.562015
5.187849
5.23619
5.156054
4.262886
2.948608
1.833859
0.901442
1.018562
1.15969
1.301791
1.424426
1.529542
1.590859
1.581451
1.530515
2.933359
4.237905
4.71969
4.719365
4.292086
2.707879
1.206083
0.372943
0.471895
0.660389
0.932263
1.251828
1.529542
1.703437
1.73588
1.671967
2.974238
4.205462
5.172925
5.370181
5.171303
4.625279
3.079354
1.454598
0.405062
0.46281
0.609778
0.785295
1.012073
1.25345
1.43059
1.523053
1.649906
3.627646
5.140806
5.982392
5.756909
4.677838
2.812022
1.024077
0.044294
0.018664
0.009904
0.129619
0.539701
1.065604
1.596699
2.326995
5.017845
6.696801
8.153532
9.144376
9.405553
9.123936
8.610344
7.021888
5.531101
4.062386
2.077832
1.133086
1.283622
1.379005
1.460438
1.520133
1.509751
1.437728
2.81559
4.190862
5.46881
6.017106
6.386639
6.474237
5.539212
4.429646
2.978131
1.203488
1.072093
1.200892
1.330665
1.43059
1.458491
1.353051
1.134059
1.353375
2.025922
2.951528
4.082501
5.543754
6.466451
6.364253
5.374723
3.682475
2.134932
1.329692
1.429292
1.518835
1.584695
1.583073
1.485743
2.200467
3.128019
3.8541
3.967976
3.925476
4.033512
3.780778
3.85994
3.43331
2.25854
1.384845
1.355322
1.521755
1.690784
1.784545
2.249456
3.015117
3.815168
4.207084
4.455276
4.153552
4.073093
4.457871
4.336209
4.49291
4.204164
3.422929
2.554098
2.07848
1.971093
1.990559
2.789311
3.55108
4.586023
6.142339
6.973547
7.255483
6.985226
6.355818
5.078514
3.599096
2.619958
1.737178
1.28784
1.167476
1.392956
1.537977
1.625249
1.854298
2.694577
3.620184
4.924732
5.999911
6.378204
6.330512
6.119953
4.939332
3.930342
2.863282
1.547061
0.821307
1.127246
1.347211
1.515916
1.625249
2.355221
3.417738
4.790092
6.080696
7.302851
8.063662
8.631433
8.899747
7.874189
6.640349
4.976642
3.052751
1.40496
1.160663
1.230416
1.236904
1.204137
1.165854
2.174512
4.581481
6.873295
8.772241
10.013237
10.454807
9.800401
8.453964
6.938507
5.097656
3.522529
2.049282
1.32515
1.454922
1.448758
1.354349
1.709926
2.581999
4.168152
5.962925
7.599389
8.594447
9.033741
8.096755
6.817817
5.288424
3.354473
1.940597
1.067227
1.256695
1.452003
1.688513
2.694253
3.587416
4.554877
5.216724
5.572953
5.164814
5.199529
5.199204
4.109429
2.908378
2.37858
3.371019
4.528922
5.267011
5.326058
5.131073
5.881816
6.582924
7.422245
8.732659
9.587241
10.158588
10.411981
10.185193
9.230029
7.820007
6.277629
4.496479
3.000517
1.729067
1.178831
1.341047
1.460438
2.709826
4.045516
5.59534
7.489079
8.85984
9.577508
9.802348
9.709232
8.591851
7.401481
6.017431
4.188591
2.861984
1.880577
1.428319
1.438052
2.218635
3.575088
4.904942
6.413568
7.666223
8.722926
8.966906
8.898773
8.832911
8.072746
7.241857
5.941837
4.164583
2.748757
1.934757
1.487366
1.411773
1.822179
2.305907
3.19907
4.599325
5.748798
7.320047
8.716761
9.45649
9.134318
7.800217
6.404808
4.594458
3.04756
1.662883
1.401067
1.942219
2.705608
4.103914
5.205693
6.54172
7.87646
8.194087
7.709373
7.065687
6.682526
5.691048
5.83672
6.4671
6.025217
5.364342
4.59316
4.184698
4.158094
4.827726
6.160507
7.54099
9.02855
10.342873
10.631631
10.631631
10.631631
10.631631
9.832197
8.635326
7.27203
5.410736
3.882326
2.927844
2.479479
2.442169
3.504686
4.644745
6.037546
7.806705
9.007786
9.919148
10.360069
10.448643
9.921419
8.756019
7.585438
6.113788
4.679135
3.228269
2.433409
2.093729
2.103137
3.260712
4.496479
6.074207
8.38064
10.302642
10.631631
10.631631
10.631631
10.115762
8.819285
7.412512
5.542781
3.918662
2.452551
1.462384
1.049707
1.526297
3.193879
5.358177
7.519252
8.788787
9.542792
9.365971
8.712868
8.226855
7.369361
7.146797
6.80419
5.908096
5.000974
4.529247
4.705415
5.151837
6.442767
7.482266
8.492572
9.68133
10.334438
10.298749
9.589188
8.711895
7.871918
6.560538
5.163841
3.305159
3.084221
3.535831
4.75408
6.389235
7.820007
9.621957
10.631631
10.631631
10.631631
10.631631
10.631631
10.631631
10.631631
10.631631
10.631631
9.102199
7.145499
5.671582
4.590889
4.009828
3.958243
4.519189
5.844831
7.187676
8.786841
10.186815
10.631631
10.631631
10.631631
10.631631
10.631631
9.526246
8.123683
6.261731
4.796581
3.946239
3.372966
2.982349
3.572492
4.273268
5.223212
6.860318
8.295637
9.479202
10.267927
10.631631
10.631631
10.631631
10.149504
8.737201
7.246075
5.713434
4.764462
4.314471
4.17464
5.04672
6.023595
7.446902
9.674192
10.631631
10.631631
10.631631
10.631631
10.631631
10.631631
10.631631
9.007786
7.681796
6.500841
5.741336
5.432797
5.711812
6.64554
7.655192
8.998377
10.246838
10.631631
10.631631
10.631631
10.631631
10.437936
9.65213
8.737526
7.252563
6.184191
5.645303
5.537266
5.791623
6.939805
8.120763
9.606059
10.631631
10.631631
10.631631
10.631631
10.631631
10.631631
10.631631
9.366295
7.596469
5.876301
3.994255
2.543716
1.509427
1.229442
2.600816
4.475066
7.507572
10.631631
10.631631
10.631631
10.631631
10.631631
10.313673
8.075017
6.159858
3.918662
1.931513
0.921232
2.159913
4.294681
6.972573
9.773472
10.631631
10.631631
10.631631
10.631631
10.631631
10.631631
10.631631
10.631631
10.288042
8.533127
6.7406
5.748798
5.97201
7.012479
8.076315
9.514566
10.621897
10.631631
10.631631
10.631631
10.631631
10.631631
10.631631
10.631631
10.631631
10.57323
8.878658
7.289874
5.924966
5.386403
5.27934
5.537914
6.847989
8.065933
9.405228
10.631631
10.631631
10.631631
10.631631
10.631631
10.631631
10.631631
9.596001
7.719756
6.330512
5.137237
4.582454
4.587645
5.228728
6.657869
8.09351
9.828952
10.631631
10.631631
10.631631
10.631631
10.631631
9.11907
7.650974
6.033977
3.721731
1.670021
2.090809
4.079581
5.992125
8.346574
10.378563
10.631631
10.631631
10.631631
10.631631
10.631631
10.631631
10.631631
10.631631
10.631631
8.465968
5.534021
2.763681
1.268374
1.298871
3.056968
6.597523
9.876646
10.631631
10.631631
10.631631
10.631631
10.631631
10.631631
10.631631
10.631631
10.631631
9.074297
7.750253
6.609528
6.008022
5.887007
6.319805
7.585113
8.90948
10.472328
10.631631
10.631631
10.631631
10.631631
10.631631
10.631631
10.379536
9.026279
7.137388
5.735496
4.824482
4.40142
4.455276
5.537266
6.960894
8.501981
10.538839
10.631631
10.631631
10.631631
10.631631
10.631631
10.631631
10.409385
8.967555
7.761284
6.60531
6.207226
6.128712
6.414541
7.745062
8.879631
10.09597
10.631631
10.631631
10.631631
10.631631
10.631631
10.631631
10.631631
9.526895
7.766475
6.312992
4.914999
4.158094
3.911525
4.294681
5.942161
8.293041
10.631631
10.631631
10.631631
10.631631
10.631631
10.631631
10.631631
10.631631
10.631631
8.41568
6.49565
5.024334
4.08315
3.914769
5.087598
6.977764
9.129127
10.631631
10.631631
10.631631
10.631631
10.631631
10.631631
10.631631
10.540786
8.828369
7.159774
5.657956
5.018169
4.829024
5.109011
6.637105
8.237237
9.887352
10.631631
10.631631
10.631631
10.631631
10.631631
10.631631
10.631631
10.551168
8.698593
7.238937
6.002507
5.424362
5.380563
5.819849
7.06958
8.208038
9.63169
10.631631
10.631631
10.631631
10.631631
10.631631
9.617415
8.157749
7.104295
5.958059
5.059048
4.48415
4.350484
4.552606
5.36791
6.338298
7.628588
9.401011
10.631631
10.631631
10.631631
10.631631
10.631631
10.631631
10.631631
9.341962
7.595171
5.616752
4.16945
3.215616
2.899294
4.110403
6.052145
8.673611
10.631631
10.631631
10.631631
10.631631
10.631631
10.631631
10.631631
10.631631
9.691063
8.106812
6.515116
5.558029
5.085003
5.298157
6.52485
7.785617
9.369215
10.631631
10.631631
10.631631
10.631631
10.078775
8.304072
7.228879
7.103971
6.640349
6.163103
6.102757
6.322076
6.680904
7.531905
8.502954
9.543766
10.631631
10.631631
10.631631
10.631631
10.631631
10.631631
10.631631
9.921419
8.296286
6.645865
5.16968
4.44976
4.075364
4.075688
4.945172
5.709865
6.635158
8.156452
9.203425
10.238402
10.631631
10.631631
10.631631
10.631631
9.486988
7.688609
6.21631
4.720014
3.817764
3.37329
3.572817
4.565259
5.484707
6.69453
8.124981
9.469793
10.26598
10.631631
10.631631
10.631631
10.631631
9.361429
7.321669
5.79065
4.89748
4.650585
4.822211
5.754962
7.088398
8.444555
10.155344
10.631631
10.631631
10.631631
10.631631
10.631631
9.096683
7.417054
5.553487
4.470849
3.975438
4.076013
4.416344
5.175845
7.046221
8.613589
9.843228
10.631631
10.631631
10.631631
10.631631
10.631631
10.438261
9.21478
7.805732
5.820498
4.330044
2.885343
1.771892
0.983848
1.041921
1.943192
3.122179
5.035689
7.564674
10.488225
10.631631
10.631631
10.631631
10.631631
10.631631
9.312438
7.125708
5.554785
4.46144
3.796351
3.519285
4.11462
4.880934
5.790325
7.293767
8.579198
10.080397
10.631631
10.631631
10.631631
10.631631
9.949646
8.432875
6.813599
5.31373
4.563312
4.167827
4.096452
5.071377
6.043386
7.215253
8.920835
10.044384
10.631631
10.631631
10.631631
10.499905
9.130425
7.686987
5.868514
4.438081
3.170195
2.619633
2.575186
2.968074
4.371247
5.725438
7.347624
8.997079
10.341251
10.631631
10.494065
9.62877
7.37877
5.190444
3.173764
0.752203
0.014122
0.130268
0.615942
1.207381
4.267429
7.110135
9.39874
10.631631
10.631631
10.631631
10.631631
10.631631
10.631631
9.577832
7.14193
4.405962
1.863382
0.432638
0.543594
0.80541
1.158716
2.788014
4.81994
7.059847
9.615792
10.631631
10.631631
10.631631
10.631631
10.631631
10.631631
9.559339
7.397588
5.637516
4.093532
3.352851
3.116988
3.390485
4.635012
5.905176
7.366117
8.933813
10.18714
10.631631
10.631631
10.328598
8.942897
7.649028
6.316561
4.56753
3.319434
2.367225
1.911398
1.966876
2.849656
4.17756
5.568736
7.3181
8.689184
9.796832
9.867237
8.953604
7.397588
5.234243
3.459589
2.074263
1.991533
2.585244
3.255197
3.48522
3.499495
4.425752
5.281611
6.344138
7.882624
8.671664
8.75245
7.924477
6.716592
5.395163
3.964732
2.512895
2.962883
4.338155
4.705415
4.809882
4.496803
4.308632
4.901697
5.549919
6.649433
8.147367
9.437673
10.131984
10.401274
10.32146
9.292647
8.200251
6.634834
4.208057
2.195276
0.981577
1.001367
1.051005
1.187591
1.882199
4.06044
6.628345
8.90656
10.631631
10.631631
10.631631
10.631631
10.044708
8.670042
6.982955
5.07819
3.426173
2.586866
2.116439
2.027545
3.021605
3.856371
4.572396
5.869812
6.847989
7.771017
8.564274
9.209914
9.127181
8.302125
6.958298
5.03504
3.417413
1.935406
1.408204
1.555821
1.677807
2.730914
3.833985
5.070079
6.508303
7.58706
7.907606
7.787888
7.355735
5.78773
3.972843
1.897772
0.265232
0.349908
0.629244
1.044192
1.454598
2.122279
3.730816
5.043151
6.651056
7.986121
9.34034
10.06677
10.262411
9.703717
7.81579
5.710839
3.112771
0.480005
0.481952
0.613671
0.879705
1.243717
1.614218
4.343346
7.04395
9.680681
10.631631
10.631631
10.631631
10.631631
10.01129
8.343978
6.745467
4.69341
2.978131
1.39328
1.413071
1.527595
1.631413
1.980178
3.219834
4.704441
6.3516
7.677578
8.280712
8.51431
8.487381
7.330753
5.897389
3.999771
1.408204
0.628271
0.625026
0.68829
0.864457
1.121407
1.469522
4.137331
6.971924
8.694699
9.858801
10.097917
9.792939
8.933813
6.750658
4.461116
2.084969
0.476437
0.534185
0.690886
0.993905
1.333261
1.61876
2.860038
4.249909
5.655685
6.429465
6.874918
7.141281
7.764528
8.204144
7.964383
7.132846
5.473676
3.870322
2.370794
1.733934
1.846836
1.928268
2.32732
2.724101
3.353824
4.595431
5.681964
6.408052
6.614719
6.346734
5.076568
3.841772
2.43276
0.590312
0.787566
1.046138
1.28492
1.569771
2.038251
4.197026
6.062852
7.750253
8.827072
9.720588
9.778988
9.424371
8.660957
6.982955
5.267984
3.100442
0.654874
0.643843
0.698023
0.785944
0.878407
0.9965
1.116865
1.212247
3.505659
5.499956
7.997152
9.787423
10.342873
9.685548
8.226206
6.598172
4.588943
2.82435
1.409826
1.512671
1.623303
1.718037
1.763457
2.68452
3.965705
5.648871
6.894708
7.467991
7.72592
7.661032
6.538151
5.331249
3.952403
2.135905
1.054249
1.213545
1.366677
1.492232
1.554199
1.511049
1.406258
2.500242
3.574114
4.771275
5.498009
6.273411
6.887246
6.227017
5.267011
4.010802
2.351652
1.232038
1.387765
1.549332
1.681376
1.746587
1.889661
2.76141
4.133113
5.176494
6.056687
6.371715
6.130334
4.89748
2.512895
0.489414
0.036507
0.224029
0.697374
1.276809
1.780003
2.085294
3.162085
4.032214
5.083056
6.579031
7.779777
8.334245
8.513012
8.408542
7.265865
5.83088
3.924178
1.435132
0.808979
0.804437
0.853426
1.049383
1.32223
1.580153
3.492682
6.643918
8.974693
10.470056
10.57323
10.120304
9.306598
7.517305
5.838017
4.125975
2.061286
1.180778
1.304386
1.438376
1.555821
1.631089
1.652501
2.65305
4.443596
5.659902
6.592332
6.981333
6.894384
6.197168
4.907537
3.549782
1.868897
0.881003
1.017588
1.172018
1.31639
1.430914
1.495476
1.512022
2.584595
4.51854
5.879545
6.488513
6.583248
6.169591
4.630795
3.065404
1.359864
0.393382
0.418363
0.527372
0.71976
0.964706
1.283947
1.614867
3.807057
6.700695
8.753748
10.091104
10.21634
9.747517
8.944844
7.224013
5.559652
3.676635
1.443243
1.02797
1.084097
1.135033
1.131464
1.078582
1.016615
0.996176
1.60189
3.845989
6.109246
7.425489
7.929344
7.832336
7.039083
5.85943
4.106509
2.423676
1.434483
1.571069
1.691758
1.766053
1.779679
2.008728
3.080327
4.723258
5.899985
6.569297
6.803217
6.716268
5.639787
4.453005
3.07027
1.283622
1.006882
1.209003
1.394578
1.550954
1.681376
1.756644
2.677058
4.377736
5.838991
7.047843
7.212009
6.667278
5.268309
2.623851
0.686344
0.037805
0.019961
0.175364
0.803788
1.477308
1.959414
2.714043
3.848585
4.915648
6.536854
7.593873
8.230424
8.284281
7.743764
6.513819
4.519189
2.494727
0.496876
0.51991
0.664931
0.875812
1.134708
1.49353
1.815042
2.992731
4.526651
6.252647
7.223688
7.189298
6.617639
5.685208
3.755472
2.102813
0.850506
0.516017
0.823903
1.218087
1.593455
1.897772
2.086916
3.050804
4.168476
5.265389
6.011266
6.537827
6.379826
6.019377
5.661849
4.842975
4.345617
3.737629
2.153749
1.332936
1.469197
1.600917
1.714143
1.788114
1.797847
2.752002
4.430943
5.564843
6.424274
6.701668
6.500517
5.64952
3.984522
2.285144
0.5543
0.62308
0.751879
0.924477
1.124651
1.305684
1.418586
1.453949
1.497099
3.395027
4.834539
5.719274
6.171213
6.269842
5.410087
4.402069
3.140672
1.292382
1.064956
1.218087
1.371219
1.549008
1.711548
1.768324
1.767999
2.886317
3.595202
3.829119
3.334034
2.845438
2.587515
2.071992
2.192356
2.406806
1.617463
1.398471
1.618112
1.835157
2.00451
2.110275
2.780552
4.195729
5.932428
7.08126
8.076964
8.259948
7.958868
6.937534
5.188173
3.389187
1.198297
0.824227
0.85959
0.904037
0.985145
1.109403
1.293031
1.50456
2.133634
4.723258
6.665331
8.103892
8.639869
8.540265
7.180538
5.473027
3.591634
1.207705
1.057818
1.13114
1.234633
1.340722
1.434808
1.486068
1.504236
1.787465
3.375886
4.874769
5.538239
5.742309
5.559327
4.539304
3.542644
2.34711
1.054574
1.199919
1.361486
1.522729
1.657692
1.745938
1.76735
1.722903
3.083896
4.178858
5.017196
5.130748
4.830322
4.089314
2.770494
1.507156
0.709703
0.867377
1.052952
1.226198
1.375112
1.477308
1.512996
1.47601
1.395551
1.981151
3.460563
4.556175
5.211208
5.446748
4.721312
3.786618
2.56448
1.038677
1.138926
1.25637
1.333261
1.397498
1.432212
1.406907
1.427346
1.66191
4.213248
6.523227
7.603931
7.809301
7.30934
5.65244
3.883948
1.943517
0.974115
0.984172
1.007531
1.065929
1.225549
1.441945
1.578531
1.634658
2.526521
4.16653
5.492493
6.035599
6.05831
5.4315
3.90017
2.111248
0.816116
0.843044
0.935507
1.10259
1.359864
1.649906
1.884146
2.014567
2.553774
4.424455
5.606046
6.171213
6.236101
5.864297
4.671673
3.203936
1.624276
0.958542
1.065604
1.211274
1.368624
1.517538
1.643093
1.707655
1.715117
1.663856
2.728318
3.895628
4.061413
3.699994
3.050155
1.41372
0.42031
0.442696
0.645465
0.93129
1.206732
1.43351
1.617463
1.752426
1.756968
1.655421
1.465304
1.526946
1.782599
1.332612
0.597125
0.064084
0.036832
0.018015
0.270747
0.835907
1.472117
1.959738
2.280602
2.485967
2.566426
2.894428
3.584172
4.593809
4.873472
4.506536
3.729518
2.836354
1.570745
0.753177
0.798597
1.044841
1.328394
1.588264
1.760862
1.871817
1.957467
1.986666
1.952925
1.874737
3.006681
4.071471
4.369625
4.26386
3.850207
2.421081
1.101616
0.783673
0.85667
0.99942
1.171694
1.354024
1.519809
1.649906
1.718685
1.725823
1.664181
2.662134
3.681502
4.037405
3.855722
3.132237
1.634333
0.710352
0.776536
0.889438
1.041272
1.209976
1.37641
1.521755
1.628169
1.669372
1.656719
1.567825
2.411023
2.78996
2.504135
1.871493
0.601667
0.407008
0.534185
0.773616
1.023753
1.231713
1.346562
1.37641
1.389387
1.400093
1.391334
1.36765
1.257343
1.868897
2.824675
3.288289
3.279205
2.364305
1.546088
0.994229
1.052627
1.163258
1.309253
1.491908
1.691433
1.877657
1.959414
1.918211
1.792332
2.009701
2.599843
3.03004
3.507606
3.333709
2.014567
0.89106
0.930641
0.992932
1.046463
1.115242
1.198946
1.301466
1.478282
1.726796
1.916589
3.05048
4.656425
5.517151
5.602153
5.1726
3.841447
2.111248
0.949458
0.92253
0.971844
1.083448
1.225225
1.374463
1.514618
1.664181
1.750155
1.740422
1.762808
3.103362
3.598447
3.649707
3.275636
1.682998
0.693481
0.563709
0.413172
0.307083
0.318763
0.472868
0.743768
1.110376
1.543168
1.941246
2.830514
4.53022
5.64368
5.76729
5.510013
4.683029
2.895076
0.888465
0.980279
0.954649
0.965679
1.010775
1.0682
1.099994
1.128544
1.194728
1.251504
1.308279
1.771568
3.891086
5.064888
5.277068
4.294357
2.837652
1.205434
1.160987
1.183373
1.246962
1.334883
1.431888
1.518511
1.561336
1.569771
1.541546
1.431239
1.461735
1.863382
1.897123
1.69338
0.65163
0.73144
0.756421
0.839476
0.961137
1.029592
1.044516
1.05652
1.049058
0.987741
0.915717
0.83396
0.731115
0.64579
0.610102
0.818712
1.785843
1.905234
1.520458
1.437079
1.635631
1.832561
2.000941
2.124225
2.17289
2.145638
2.057068
1.925673
1.722579
1.442918
1.484446
1.308928
0.862186
0.54846
0.542296
0.628271
0.715867
0.821956
0.937129
1.055223
1.264805
1.5821
1.874413
2.070045
2.208902
3.248059
4.596405
4.879311
4.703468
4.105212
2.32732
1.04257
0.974115
0.961786
0.980928
1.024077
1.095777
1.19927
1.292707
1.371543
1.494179
1.606432
1.612272
2.70139
3.443692
3.378806
2.782498
1.187266
0.970546
0.91669
0.938427
1.026673
1.151903
1.320932
1.555172
1.740098
1.799793
1.734907
1.566527
1.350455
1.125949
0.929343
0.744093
0.594854
0.56014
0.601343
0.69705
0.866079
1.077608
1.303737
1.524675
1.712197
1.827046
1.842294
1.746587
1.561012
1.3391
1.127246
1.076959
0.994878
0.808006
0.808006
0.860239
0.976061
1.146712
1.319634
1.448758
1.49937
1.419559
1.195377
0.921557
0.679531
0.52283
0.575388
0.734035
0.916041
1.687216
1.261886
1.270645
1.394254
1.566527
1.723228
1.865004
1.954223
1.952925
1.824775
1.602539
1.332612
1.073066
0.852128
0.69413
0.644168
0.775238
1.027321
1.201541
1.31347
1.325474
1.378357
1.488014
1.602214
1.711548
1.806931
1.868897
1.881226
1.860787
1.763781
1.613894
1.972716
1.997697
1.676185
0.97087
0.911499
0.898522
0.938427
1.046138
1.190511
1.353051
1.509427
1.650555
1.723876
1.740422
1.698571
1.567825
1.394254
1.222954
1.08215
0.900793
0.819036
0.784322
0.799895
0.920259
1.105509
1.278432
1.398471
1.471468
1.516564
1.517213
1.499694
1.470495
1.378357
1.240797
1.055871
0.819036
0.600369
0.451131
0.38592
0.399546
0.48325
0.632813
0.863159
1.09091
1.303088
1.473091
1.610001
1.720308
1.725499
1.597024
1.403013
1.187266
1.012073
0.904686
0.907282
0.983199
1.092857
1.232687
1.393929
1.546088
1.671967
1.742045
1.713819
1.604161
1.465953
1.311848
1.196675
1.149632
1.137953
1.23366
1.187591
1.20803
1.223927
1.272592
1.373814
1.506507
1.651853
1.782599
1.880577
1.909127
1.869871
1.751778
1.572367
1.377059
1.171694
0.968924
0.790486
0.683748
0.64871
0.649034
0.747337
0.93129
1.129517
1.34786
1.56166
1.718685
1.811797
1.805309
1.677483
1.480228
1.242744
0.999096
0.775887
0.550083
0.365157
0.232788
0.244144
0.403764
0.656172
0.966653
1.330665
1.661585
1.845214
1.895176
1.849432
1.680403
1.444865
1.218412
1.026673
0.874514
0.796326
0.795028
0.877758
1.055871
1.299195
1.54771
1.768972
1.920807
1.991208
1.968174
1.848783
1.645688
1.421506
1.215167
1.052952
0.967302
0.892358
0.857644
0.870297
0.936805
1.074688
1.254424
1.448434
1.640173
1.808553
1.904585
1.889986
1.780976
1.592481
1.362459
1.134059
0.953675
0.88522
0.889114
0.907931
0.940698
1.005585
1.106807
1.234309
1.379654
1.503912
1.568798
1.574313
1.555496
1.503912
1.403662
1.324501
1.264481
1.197324
1.080204
0.920259
0.772643
0.685695
0.668825
0.732089
0.930965
1.21387
1.445514
1.588588
1.684296
1.74172
1.673589
1.501316
1.328718
1.182075
1.039325
0.924477
0.898198
0.929992
0.973466
1.051329
1.166827
1.309901
1.451029
1.557767
1.629467
1.669696
1.670994
1.595401
1.484446
1.370246
1.248259
1.147361
1.077933
1.041272
1.043867
1.098048
1.211923
1.362135
1.506507
1.639524
1.7388
1.783572
1.781301
1.7388
1.614867
1.44227
1.266752
1.073066
0.854724
0.679531
0.639301
0.661038
0.747013
0.933236
1.218412
1.494179
1.71901
1.851054
1.873764
1.818286
1.705384
1.545114
1.427995
1.32223
1.174938
1.01694
0.878083
0.772318
0.694779
0.702241
0.7827
0.897549
0.998447
1.129517
1.251179
1.376086
1.512022
1.593455
1.623951
1.524026
1.32807
1.127895
0.979954
0.945565
0.983523
1.077608
1.243393
1.455896
1.659314
1.779679
1.814717
1.77027
1.674887
1.512347
1.250855
0.997149
0.834285
0.759341
0.724302
0.749932
0.789189
0.887491
1.117513
1.389387
1.58502
1.723876
1.835805
1.919184
1.94449
1.925673
1.845214
1.682998
1.495801
1.326447
1.175262
1.042245
0.968275
0.95984
0.990336
1.080528
1.222629
1.407231
1.594104
1.731663
1.806282
1.821206
1.786167
1.67586
1.508129
1.323528
1.146063
0.989039
0.889438
0.848235
0.849208
0.897549
1.009802
1.155472
1.307955
1.446163
1.541221
1.559389
1.535381
1.473415
1.329692
1.153525
1.001367
0.877758
0.758368
0.642221
0.548136
0.517315
0.606209
0.767776
0.993905
1.306657
1.654448
1.898745
2.001266
1.99283
1.867275
1.618436
1.296275
0.965031
0.619835
0.278209
0.110478
0.045916
0.021259
0.24025
0.733711
1.231065
1.592806
1.822504
1.95909
2.006457
2.041171
2.042793
1.939624
1.782923
1.612596
1.445189
1.306008
1.200244
1.119136
1.105509
1.174289
1.288489
1.414693
1.526622
1.583397
1.479579
1.267725
1.052627
0.836231
0.659416
0.646763
0.862835
1.121731
1.336829
1.419235
1.441296
1.478282
1.545763
1.638875
1.7388
1.828668
1.885119
1.879928
1.828992
1.727445
1.556794
1.343318
1.065929
0.719436
0.415768
0.237979
0.160765
0.175364
0.304163
0.516017
0.776536
1.073391
1.371868
1.638226
1.826397
1.917562
1.895176
1.784221
1.567176
1.271294
0.964382
0.691859
0.509204
0.42323
0.50596
0.701592
0.924152
1.191808
1.475686
1.759239
1.99283
2.095351
2.072316
1.936704
1.762159
1.583397
1.381601
1.16488
0.981901
0.847911
0.765181
0.800219
0.934858
1.109078
1.295951
1.53895
1.78195
1.895825
1.885768
1.755671
1.511374
1.209976
0.923503
0.680504
0.516666
0.459242
0.498174
0.613671
0.823903
1.077284
1.327421
1.556794
1.740747
1.842618
1.856569
1.811149
1.680078
1.489961
1.278432
1.059765
0.87127
0.746688
0.696726
0.690561
0.703539
0.74831
0.792433
0.841747
0.866079
0.898198
0.934534
0.974115
1.054249
1.215167
1.410475
1.54771
1.565229
1.481526
1.373814
1.320932
1.323528
1.386143
1.506831
1.645688
1.774812
1.875062
1.909776
1.838076
1.692731
1.489637
1.255397
1.044192
0.877434
0.806708
0.821307
0.901766
0.990012
1.063333
1.165529
1.294004
1.438701
1.578206
1.68462
1.703762
1.634333
1.513645
1.330989
1.11654
0.920583
0.779456
0.681477
0.649683
0.684397
0.77686
0.948809
1.12822
1.261561
1.319634
1.294978
1.170396
0.967626
0.806059
0.77102
0.7827
0.851804
0.916041
0.915393
0.986443
1.11946
1.20803
1.260912
1.35078
1.489961
1.647635
1.78487
1.850405
1.855596
1.812122
1.743342
1.62168
1.44746
1.267401
1.080853
0.916366
0.807357
0.780753
0.845315
1.003962
1.230416
1.435457
1.61065
1.764755
1.867275
1.913993
1.903287
1.845214
1.72193
1.544141
1.349807
1.152552
0.971195
0.843693
0.802815
0.816116
0.875487
0.989687
1.122055
1.279405
1.440647
1.571393
1.627845
1.624276
1.534084
1.297897
0.959191
0.58869
0.254525
0.101069
0.041698
0.019313
0.046889
0.269774
0.595503
1.014993
1.382899
1.644066
1.781625
1.758591
1.514942
1.163258
0.779456
0.429394
0.185746
0.078683
0.201319
0.570846
0.855048
1.018237
1.207381
1.442594
1.758915
2.147585
2.432111
2.560262
2.511597
2.262109
1.846512
1.356944
0.850506
0.512448
0.440749
0.538079
0.835258
1.197972
1.477633
1.706033
1.902638
2.067774
2.176135
2.1956
2.173539
2.121306
2.041171
1.888688
1.694678
1.485095
1.282325
1.095777
0.954649
0.886518
0.878407
0.944916
1.06236
1.200892
1.354349
1.496774
1.592806
1.616814
1.590535
1.515916
1.380952
1.22198
1.061062
0.907606
0.783998
0.723978
0.725276
0.773616
0.895602
1.053276
1.223927
1.381925
1.503912
1.562958
1.555821
1.496774
1.386143
1.239175
1.077933
0.914095
0.769723
0.671096
0.626648
0.614644
0.660065
0.786593
0.949782
1.137953
1.289787
1.40496
1.451029
1.425399
1.351753
1.20511
1.009802
0.771669
0.462162
0.203265
0.082252
0.108531
0.323954
0.731115
1.248908
1.696624
2.025274
2.211822
2.266651
2.186192
1.980178
1.682349
1.31347
0.945889
0.641572
0.519262
0.573442
0.698023
0.898198
1.134384
1.416964
1.669372
1.860787
1.968822
1.993804
1.939299
1.824126
1.709277
1.573016
1.415991
1.296275
1.189537
1.05944
0.935507
0.86835
0.858293
0.929992
1.08215
1.253775
1.401391
1.512347
1.564905
1.550954
1.491908
1.383223
1.236255
1.050356
0.793082
0.502067
0.248686
0.11502
0.173093
0.422257
0.820983
1.288813
1.682349
1.913993
2.036304
2.095675
2.071343
1.978231
1.828668
1.614543
1.397498
1.187266
0.997149
0.842071
0.780105
0.797948
0.863483
0.992607
1.154823
1.326447
1.489637
1.63336
1.728418
1.742693
1.69338
1.581775
1.421506
1.240473
1.055547
0.861861
0.610102
0.358019
0.176013
0.079008
0.105611
0.4401
0.997149
1.56166
1.988613
2.135581
2.087889
1.95909
1.74464
1.484446
1.258641
1.119136
1.043543
0.98255
0.938427
0.935183
1.003962
1.121731
1.230091
1.323852
1.386143
1.416964
1.438052
1.468224
1.49061
1.471793
1.395876
1.207381
0.944591
0.66266
0.448535
0.349259
0.307083
0.349908
0.492658
0.69997
0.965679
1.308279
1.659639
1.919509
2.097622
2.15894
2.072965
1.86176
1.614867
1.376734
1.180453
1.069173
1.016615
1.024726
1.109078
1.231713
1.365055
1.487041
1.575287
1.603188
1.570096
1.508454
1.391009
1.216465
0.997474
0.77394
0.577659
0.462162
0.489414
0.638977
0.846937
1.070471
1.255721
1.441296
1.612921
1.73296
1.73588
1.618436
1.388414
1.035432
0.635408
0.27464
0.108856
0.050782
0.331091
0.738253
1.103563
1.444541
1.785194
2.019758
2.151478
2.209875
2.199169
2.080103
1.825748
1.472766
1.103887
0.768749
0.492658
0.30903
0.247388
0.328171
0.506284
0.753826
1.079879
1.429292
1.737503
1.96428
2.112546
2.167375
2.144989
2.06745
1.889661
1.663532
1.422479
1.189213
1.004936
0.881652
0.827796
0.820659
0.86543
0.967302
1.094803
1.224576
1.349158
1.448434
1.490285
1.49353
1.453625
1.342345
1.193106
1.034783
0.895602
0.807357
0.781402
0.796975
0.84272
0.956271
1.108429
1.266428
1.392307
1.425724
1.282974
1.025699
0.768425
0.569873
0.485521
0.63411
0.953027
1.219385
1.338776
1.359539
1.336505
1.343967
1.431239
1.555172
1.680403
1.787141
1.842618
1.828343
1.755022
1.625574
1.390036
1.128869
0.888789
0.681477
0.561438
0.515693
0.536132
0.584472
0.59453
0.653576
0.868999
1.114594
1.32515
1.501965
1.601566
1.592806
1.489312
1.297573
1.091559
0.963408
0.986119
1.054574
1.101941
1.122704
1.158716
1.2395
1.358891
1.466278
1.553225
1.63044
1.687864
1.702139
1.661585
1.549656
1.384521
1.237229
1.192133
1.204137
1.192457
1.160663
1.13925
1.148659
1.213221
1.317688
1.439025
1.558741
1.65315
1.694678
1.691758
1.649581
1.539924
1.391009
1.218412
1.034135
0.870621
0.756421
0.70581
0.704836
0.761936
0.868999
0.998447
1.141521
1.284596
1.413395
1.489637
1.512996
1.488014
1.379979
1.226847
1.064631
0.908579
0.776211
0.711001
0.682775
0.657794
0.662985
0.626
0.560464
0.565655
0.672069
0.778482
0.843044
0.932587
1.002665
0.988065
1.03673
1.174938
1.293355
1.342669
1.362459
1.428643
1.521431
1.595726
1.633035
1.634658
1.575611
1.488988
1.449407
1.470495
1.552576
1.660937
1.748858
1.750155
1.649257
1.474713
1.291409
1.164232
1.100319
1.109403
1.192133
1.315417
1.443567
1.579504
1.693704
1.729392
1.70733
1.634009
1.488014
1.316066
1.140224
0.972492
0.83688
0.763883
0.754474
0.786918
0.887816
1.035108
1.204786
1.375112
1.515267
1.608379
1.628493
1.59313
1.508778
1.368624
1.195701
1.020833
0.853751
0.691859
0.533861
0.407008
0.329145
0.333687
0.463459
0.732738
1.013046
1.311848
1.546737
1.67586
1.731663
1.726472
1.630764
1.467251
1.281351
1.108105
0.980279
0.92253
0.929668
1.011424
1.15093
1.295626
1.417288
1.472117
1.463682
1.387441
1.228469
1.0111
0.77686
0.531914
0.294755
0.13189
0.17796
0.42907
0.804112
1.112647
1.352402
1.550954
1.699544
1.808553
1.895825
1.952601
1.954872
1.903936
1.797847
1.651204
1.503263
1.358242
1.203488
1.057169
0.964057
0.918312
0.936481
1.047112
1.208354
1.358891
1.457193
1.455247
1.363757
1.241446
1.120758
1.029917
1.053925
1.135033
1.139899
1.06528
0.93421
0.828445
0.761936
0.764532
0.846937
0.969897
1.102265
1.232687
1.379005
1.488014
1.543168
1.544466
1.478282
1.37933
1.265779
1.149632
1.052627
0.998123
0.978332
1.004611
1.098372
1.238851
1.386467
1.525
1.631089
1.681051
1.658017
1.598321
1.48185
1.292382
1.089288
0.912797
0.759016
0.596152
0.444967
0.331416
0.292808
0.386893
0.614644
0.97671
1.41891
1.785518
2.025274
2.096
2.040198
1.875711
1.662883
1.424426
1.148659
0.832987
0.570197
0.419661
0.368401
0.451455
0.726573
1.040948
1.198621
1.191159
1.120109
1.012398
0.964057
1.083448
1.308279
1.535706
1.613894
1.492881
1.321581
1.191808
1.13633
1.152552
1.252477
1.403987
1.548683
1.67586
1.765079
1.814393
1.802389
1.745938
1.644391
1.485743
1.297897
1.09091
0.881976
0.701592
0.599396
0.576362
0.621133
0.761288
0.944591
1.141521
1.344291
1.512347
1.619085
1.661585
1.650555
1.573989
1.437728
1.274214
1.100643
0.939725
0.798597
0.735657
0.745066
0.820659
0.959191
1.121082
1.282649
1.432212
1.536679
1.549656
1.451678
1.241446
0.920583
0.59453
0.357046
0.224353
0.244468
0.448535
0.723653
0.972492
1.247935
1.511374
1.711224
1.832885
1.902314
1.902314
1.792656
1.609028
1.36473
1.083124
0.814494
0.573766
0.392409
0.278209
0.22922
0.1692
0.174066
0.401493
0.823254
1.297897
1.744964
2.086267
2.239074
2.2102
2.10184
1.951952
1.771568
1.592157
1.424426
1.207705
0.929343
0.693806
0.519262
0.469948
0.617564
0.971519
1.361162
1.668074
1.875062
1.962334
1.926971
1.832561
1.674887
1.494828
1.317039
1.168125
1.037703
0.944591
0.925774
0.937454
0.995527
1.099345
1.234958
1.37349
1.499694
1.609352
1.665154
1.661261
1.582749
1.423777
1.241446
1.067551
0.907282
0.774914
0.712947
0.706459
0.744742
0.859915
1.007856
1.161961
1.311524
1.439999
1.518511
1.538301
1.503912
1.390685
1.228794
1.033486
0.824227
0.632164
0.48033
0.407008
0.397275
0.44886
0.58577
0.723329
0.82812
0.897549
0.929019
0.990985
1.169098
1.409826
1.541546
1.523378
1.413395
1.275836
1.162285
1.11654
1.135357
1.195377
1.309253
1.445514
1.552901
1.616165
1.655746
1.641471
1.540248
1.449407
1.364082
1.249882
1.174289
1.11362
1.018886
0.902415
0.833311
0.815143
0.858941
0.980279
1.118811
1.236904
1.345913
1.433834
1.484121
1.45914
1.421506
1.32515
1.199919
1.084421
0.993256
0.924477
0.886518
0.890736
0.930641
1.001042
1.124651
1.277783
1.44746
1.592806
1.698895
1.736854
1.699544
1.591184
1.389712
1.152552
0.927397
0.745066
0.616915
0.603614
0.663958
0.758368
0.895602
1.064956
1.253775
1.421506
1.510076
1.512996
1.445838
1.328718
1.210625
1.174613
1.158067
1.079879
0.945565
0.798597
0.701917
0.679531
0.720734
0.856346
1.052952
1.255072
1.45622
1.626871
1.714792
1.760213
1.759564
1.658341
1.481526
1.271943
1.019211
0.772643
0.565655
0.452753
0.45762
0.531914
0.727222
1.004287
1.277458
1.477957
1.58502
1.57626
1.486068
1.347211
1.162285
1.036406
1.005585
1.012073
0.999745
1.029268
1.075662
1.091559
1.123678
1.181426
1.247935
1.309577
1.370895
1.416315
1.391334
1.330016
1.25053
1.143468
1.005909
0.857644
0.710027
0.586094
0.538727
0.54846
0.650656
0.879381
1.168449
1.434159
1.611299
1.711872
1.726796
1.661261
1.588913
1.513645
1.436105
1.345589
1.223603
1.060738
0.908255
0.82293
0.768425
0.735657
0.730467
0.769074
0.857644
0.97087
1.106158
1.272916
1.415991
1.454274
1.367001
1.219061
1.081177
0.999096
0.940374
0.907606
0.894953
0.896575
0.942969
1.048085
1.190835
1.340074
1.462384
1.525649
1.515267
1.49353
1.454274
1.385818
1.321581
1.265454
1.175587
1.067875
1.002665
0.974764
0.986443
1.067875
1.178182
1.301142
1.397498
1.438376
1.397498
1.168449
0.784322
0.415119
0.179257
0.074141
0.223056
0.664282
0.992607
1.151254
1.216141
1.29076
1.400742
1.528568
1.669696
1.803362
1.906532
1.965578
1.948059
1.850729
1.670994
1.459789
1.259615
1.065604
0.895278
0.778482
0.740199
0.763559
0.852453
0.983523
1.09967
1.171045
1.220034
1.260912
1.260263
1.234958
1.19343
1.080853
0.946214
0.821632
0.731115
0.668825
0.662011
0.707107
0.773616
0.907282
1.07404
1.260588
1.441945
1.595401
1.695651
1.727445
1.707006
1.632387
1.485095
1.308279
1.125949
0.95692
0.824227
0.759016
0.752852
0.805086
0.91961
1.060413
1.177533
1.261886
1.31931
1.286218
1.199919
1.13925
1.120433
1.108754
1.085719
1.054898
1.024402
0.998123
0.993905
1.041921
1.152552
1.283298
1.375437
1.439999
1.481201
1.472766
1.412097
1.334883
1.246637
1.112323
0.975412
0.905335
0.905335
0.924152
0.912473
0.880354
0.883598
0.962111
1.072742
1.210625
1.354997
1.492557
1.586966
1.624925
1.599943
1.504885
1.356944
1.161636
0.940698
