1.391009
1.289138
1.136655
0.94816
0.763559
0.636381
0.514071
0.439451
0.612698
0.854075
0.981577
0.917988
0.761288
0.880678
0.992607
1.084746
1.080204
1.066253
1.040623
1.000069
0.895602
0.738577
0.574739
0.460539
0.398897
0.655523
0.855048
0.946538
0.6831
0.676611
0.760963
0.861861
0.903713
0.870297
0.819361
0.741173
0.658118
0.580255
0.527048
0.504338
0.505635
0.545865
0.864132
1.021157
1.043867
0.873865
0.967626
1.057169
1.112971
1.079879
1.012722
0.914744
0.797624
0.702241
0.595827
0.540025
0.493307
0.463135
0.648385
0.896575
1.007207
0.95692
0.864781
0.97379
1.081177
1.152228
1.108105
1.049058
0.960164
0.890087
0.841422
0.823903
0.835258
0.853751
0.854075
0.947836
1.149957
1.213221
0.970546
1.001691
1.04549
1.111349
1.135357
1.08215
1.012722
0.918961
0.816116
0.70289
0.606858
0.527372
0.457295
0.448211
0.768425
0.923828
0.933236
0.745715
0.847586
0.941023
1.017264
1.025699
1.016291
0.984172
0.916041
0.851155
0.751879
0.662985
0.587392
0.53159
0.653252
0.872568
0.951404
0.856346
0.723978
0.832662
0.935183
1.00526
0.974439
0.953351
0.892033
0.827796
0.771345
0.703863
0.641897
0.604587
0.605236
0.779456
1.001367
1.097723
0.878083
0.969897
1.060089
1.145415
1.167476
1.117513
1.052627
0.967626
0.871594
0.775238
0.676611
0.586419
0.524128
0.530617
0.816765
0.97087
0.976386
0.85667
0.945565
1.013695
1.054898
1.053276
1.063658
1.041272
0.974764
0.880678
0.768749
0.678557
0.601018
0.548785
0.659092
0.887491
0.98839
0.905011
0.892033
1.026348
1.131464
1.190186
1.121082
1.031539
0.909228
0.826174
0.769398
0.704836
0.650656
0.60264
0.572468
0.73436
0.961137
1.057494
0.857644
0.957893
1.035432
1.112971
1.129517
1.068849
0.978981
0.87711
0.753501
0.635084
0.534185
0.455673
0.400195
0.410577
0.717165
0.866079
0.86251
0.700294
0.816441
0.931614
1.024726
1.03089
1.013371
0.955622
0.881976
0.807357
0.71976
0.668176
0.605885
0.547812
0.657469
0.912473
1.056845
1.011424
1.081826
1.170071
1.213545
1.223278
1.162285
1.12822
1.049383
0.903064
0.76291
0.647412
0.58869
0.584797
0.606858
0.757394
0.973466
1.056196
0.862186
0.910202
0.966653
1.052952
1.099021
1.069173
1.001042
0.92545
0.832662
0.745066
0.677909
0.619186
0.577659
0.595503
0.832014
0.984496
0.953675
0.846289
0.933561
1.038677
1.118487
1.098696
1.048734
0.963084
0.821632
0.681802
0.551056
0.474166
0.419661
0.391111
0.547163
0.792109
0.900793
0.813521
0.813845
0.918312
1.020184
1.093505
1.043867
0.981577
0.886843
0.793406
0.698348
0.601992
0.516666
0.46573
0.448211
0.617889
0.828445
0.901442
0.698672
0.800544
0.896575
0.987416
1.012073
0.977359
0.922206
0.848235
0.778482
0.716516
0.689913
0.677909
0.67142
0.720085
0.882625
1.00818
0.96276
0.929343
1.007531
1.092208
1.155796
1.137304
1.079231
1.009153
0.938103
0.89398
0.855048
0.828769
0.785944
0.745715
0.732738
0.913122
0.996825
0.883598
0.949782
1.056196
1.124651
1.157419
1.084421
1.014344
0.908904
0.807032
0.717165
0.63119
0.547487
0.507906
0.499147
0.643194
0.853102
0.922854
0.761936
0.8398
0.892358
0.965679
0.983523
0.944267
0.897549
0.832338
0.766478
0.694455
0.63411
0.573766
0.516666
0.506933
0.706783
0.841422
0.797948
0.714894
0.783998
0.886843
0.971195
0.962435
0.928045
0.862186
0.779131
0.69997
0.615618
0.555598
0.502067
0.473517
0.548136
0.779131
0.883923
0.794704
0.890087
0.997798
1.111998
1.220683
1.194079
1.141521
1.032188
0.884247
0.732413
0.646439
0.622431
0.623404
0.639626
0.706459
0.913122
0.986767
0.940049
1.028295
1.114594
1.168449
1.149957
1.066902
0.983848
0.912473
0.861861
0.793082
0.700943
0.600694
0.527372
0.524128
0.675962
0.803464
0.746688
0.712298
0.777185
0.858617
0.92253
0.911175
0.881652
0.819685
0.739226
0.66558
0.587068
0.536456
0.482601
0.441074
0.488116
0.70289
0.801193
0.703863
0.818387
0.92253
1.029268
1.111998
1.087666
1.047436
0.967302
0.88814
0.800868
0.714894
0.625026
0.572793
0.553976
0.593232
0.775563
0.829418
0.765181
0.867052
0.974439
1.08507
1.140224
1.15677
1.134708
1.076959
0.986767
0.863483
0.755448
0.676935
0.601992
0.608805
0.709054
0.831365
0.753826
0.764207
0.821632
0.900469
0.960813
0.958218
0.942969
0.92253
0.901766
0.846937
0.746364
0.670122
0.610427
0.57993
0.577335
0.717814
0.782376
0.690237
0.800544
0.926748
1.046463
1.128544
1.103238
1.084746
1.048734
1.027321
0.964057
0.868674
0.766154
0.704188
0.638652
0.610751
0.768749
0.813197
0.726573
0.795028
0.85667
0.924477
0.921232
0.854075
0.763883
0.665905
0.577335
0.483899
0.424528
0.382351
0.354775
0.377161
0.548785
0.695752
0.665256
0.753501
0.862835
0.984496
1.074364
1.065929
1.03965
0.972492
0.87711
0.784322
0.695428
0.619835
0.558193
0.51472
0.524128
0.68829
0.777834
0.773291
0.900469
1.018237
1.102265
1.125949
1.049707
1.014669
0.984821
0.962111
0.912797
0.843369
0.763559
0.69413
0.654874
0.649359
0.79438
0.869972
0.926099
1.074688
1.221656
1.343318
1.389063
1.31639
1.161636
0.99942
0.840449
0.680828
0.561438
0.456646
0.375538
0.362237
0.49136
0.623404
0.559167
0.593881
0.697699
0.843369
0.943294
0.958542
0.971195
0.936805
0.854075
0.775887
0.70289
0.646439
0.598098
0.566304
0.562735
0.685046
0.759665
0.739875
0.842071
0.930316
1.03089
1.091234
1.047761
0.990985
0.893331
0.80541
0.701268
0.613347
0.534185
0.500445
0.473517
0.478059
0.635084
0.677584
0.652279
0.74539
0.834933
0.906957
0.924152
0.889438
0.834609
0.765505
0.704512
0.632164
0.589663
0.543269
0.487467
0.488116
0.562735
0.700619
0.721382
0.818712
0.927397
1.080204
1.219385
1.260263
1.24242
1.164556
1.039974
0.88814
0.714245
0.581552
0.540674
0.568575
0.641897
0.753501
0.836231
0.874514
0.995527
1.140224
1.322554
1.458167
1.432537
1.337478
1.172991
0.988065
0.823903
0.712298
0.622106
0.557544
0.511151
0.469624
0.581552
0.612049
0.570197
0.655523
0.753177
0.841747
0.859266
0.834285
0.763559
0.662011
0.569873
0.472868
0.423879
0.407008
0.429394
0.530941
0.672393
0.824552
0.91961
0.975412
1.028944
1.101292
1.146063
1.099994
1.015966
0.894304
0.766154
0.664282
0.569224
0.503689
0.45178
0.429718
0.447562
0.566953
0.650332
0.693157
0.819685
0.921232
1.017264
1.064307
1.026997
0.989687
0.931614
0.870297
0.804112
0.712298
0.600694
0.53159
0.527372
0.561438
0.675313
0.736306
0.806708
0.896575
0.994554
1.106807
1.144441
1.119136
1.060089
0.975737
0.886194
0.773291
0.716516
0.65455
0.575713
0.547487
0.549109
0.654874
0.720085
0.81125
0.881327
0.955622
1.019535
1.006233
0.982874
0.924477
0.839151
0.755772
0.682126
0.631839
0.594854
0.580579
0.59161
0.65163
0.732089
0.788864
0.869972
0.940698
1.020184
1.070471
1.031539
0.989687
0.90274
0.804761
0.711325
0.636381
0.571171
0.533861
0.524452
0.541323
0.628271
0.711001
0.810926
0.950431
1.041921
1.034135
0.951729
0.919286
0.883923
0.81417
0.742146
0.662985
0.61432
0.564358
0.541972
0.57701
0.626648
0.702565
0.775238
0.851155
0.925125
1.019535
1.082799
1.032512
0.976386
0.913122
0.838502
0.764856
0.675313
0.609129
0.554625
0.524452
0.533212
0.576686
0.649683
0.701917
0.764856
0.839476
0.940698
0.988714
0.962111
0.873216
0.755772
0.653576
0.572793
0.516666
0.456971
0.421283
0.441722
0.479356
0.573117
0.663958
0.780429
0.932263
1.067875
1.179155
1.177858
1.121407
1.061387
0.995527
0.938752
0.835258
0.760639
0.663958
0.56014
0.509853
0.532888
0.603938
0.677584
0.755123
0.82812
0.90274
0.949458
0.917015
0.877434
0.815792
0.740524
0.679531
0.623404
0.595503
0.574415
0.569873
0.612049
0.696077
0.804761
0.904686
1.012073
1.070795
1.16488
1.233011
1.214519
1.15677
1.08507
0.994229
0.876461
0.739551
0.62308
0.532888
0.4972
0.49428
0.554949
0.641572
0.734035
0.853426
0.98547
1.118811
1.19635
1.205434
1.174613
1.08215
1.002989
0.865106
0.70873
0.546514
0.473517
0.442696
0.43426
0.493631
0.555922
0.641248
0.729818
0.827472
0.901118
0.859915
0.821307
0.779456
0.734684
0.704188
0.653576
0.596476
0.554949
0.540674
0.552354
0.60264
0.666553
0.725276
0.821632
0.900469
0.99131
1.014669
0.955946
0.881003
0.7827
0.692832
0.624053
0.576686
0.533861
0.492009
0.501418
0.53743
0.625675
0.725924
0.815792
0.913446
1.004936
1.075337
1.08507
1.041272
0.97963
0.903064
0.856346
0.779456
0.741497
0.692832
0.669473
0.680504
0.711325
0.772643
0.833311
0.880354
0.906957
0.963408
1.007856
0.95692
0.90274
0.830716
0.732413
0.651305
0.584148
0.559491
0.576362
0.598423
0.632164
0.715543
0.820334
0.890736
0.990012
1.055223
1.114918
1.105509
1.053925
1.017588
1.001042
1.008829
0.982874
0.94232
0.889762
0.834285
0.846937
0.870945
0.930316
0.968599
0.988065
0.994554
0.977683
0.943943
0.873865
0.787242
0.688615
0.588365
0.516666
0.424203
0.374241
0.331416
0.308705
0.329794
0.393058
0.499796
0.616591
0.723329
0.818712
0.899171
0.975412
0.960813
0.919935
0.846613
0.757719
0.686344
0.618213
0.554949
0.523479
0.513097
0.526723
0.593881
0.672393
0.742146
0.851155
0.936156
1.024402
1.039001
0.993581
0.938103
0.860564
0.779131
0.709378
0.662985
0.63411
0.624702
0.653252
0.679206
0.739226
0.807681
0.876136
0.97379
1.146063
1.321905
1.37349
1.365704
1.30763
1.187591
1.086044
0.945889
0.812548
0.708405
0.636057
0.591285
0.587717
0.645465
0.717489
0.783024
0.867701
0.990985
1.094479
1.095128
1.061387
0.949133
0.804112
0.695752
0.604263
0.531266
0.489414
0.481303
0.487467
0.544892
0.632813
0.715543
0.83396
0.924801
1.026997
1.051654
1.004287
0.938103
0.857644
0.767776
0.687966
0.628919
0.567602
0.515044
0.506933
0.526723
0.595503
0.677909
0.762261
0.855373
0.951729
1.03089
1.031215
0.992607
0.914095
0.826498
0.759016
0.660714
0.601992
0.54846
0.515368
0.529319
0.59453
0.685371
0.791784
0.909877
1.032837
1.154174
1.226198
1.188564
1.127246
1.003314
0.864132
0.760639
0.662985
0.613671
0.592259
0.603289
0.66558
0.766803
0.904362
0.970546
1.052627
1.131464
1.215492
1.18532
1.106158
1.023753
0.925125
0.799895
0.6831
0.58577
0.516991
0.464108
0.460215
0.498174
0.580904
0.682126
0.783024
0.899171
1.004936
1.047761
0.970546
0.898847
0.845315
0.806059
0.794704
0.715218
0.657145
0.60264
0.580904
0.617564
0.67434
0.744742
0.818712
0.901118
0.997149
1.098048
1.139899
1.064631
0.98255
0.864781
0.733386
0.636381
0.546514
0.463459
0.409279
0.370023
0.364832
0.417714
0.507906
0.590637
0.710676
0.823254
0.950431
0.995203
0.974439
0.925774
0.858941
0.790162
0.719436
0.657794
0.587068
0.523155
0.497849
0.501418
0.561438
0.626648
0.690237
0.769723
0.850506
0.923828
0.909553
0.874839
0.810601
0.73728
0.675313
0.589988
0.549109
0.543269
0.575388
0.658443
0.772318
0.89398
0.950107
0.961137
0.964382
1.029268
1.121731
1.091234
1.093505
1.100967
1.097399
1.045814
0.965355
0.87419
0.75707
0.629244
0.558193
0.5689
0.63703
0.701917
0.782376
0.847911
0.918961
0.908904
0.851804
0.775563
0.707432
0.65163
0.613671
0.613996
0.635084
0.64579
0.69121
0.74539
0.829418
0.907606
0.963408
1.01986
1.073715
1.088963
1.026348
0.953027
0.857968
0.763234
0.671096
0.56306
0.487467
0.427447
0.403439
0.413172
0.461837
0.544567
0.644492
0.758368
0.863483
0.965679
1.047112
1.017264
0.964057
0.878083
0.781078
0.700294
0.60848
0.536781
0.509529
0.542945
0.652603
0.792757
0.887816
0.925125
0.990336
1.051654
1.109727
1.081826
0.961462
0.807357
0.682775
0.596476
0.525101
0.473517
0.429394
0.384622
0.392733
0.443345
0.544892
0.64579
0.73728
0.830067
0.943618
1.086692
1.189537
1.284271
1.312497
1.248259
1.06528
0.810277
0.638652
0.528021
0.460539
0.438803
0.456322
0.5118
0.578633
0.665905
0.745715
0.84272
0.917988
0.897549
0.86835
0.809628
0.738253
0.674015
0.604911
0.545541
0.511151
0.503364
0.528346
0.607183
0.711325
0.803464
0.916366
1.014344
1.110376
1.124651
1.080204
0.991634
0.890411
0.77686
0.664931
0.582201
0.531914
0.484547
0.508555
0.573117
0.692832
0.804761
0.897224
0.997474
1.096425
1.166503
1.130166
1.065604
0.95692
0.844018
0.780753
0.763234
0.774589
0.758043
0.725276
0.661687
0.622755
0.660714
0.723329
0.806059
0.882949
0.987092
1.102914
1.104212
1.053276
0.935832
0.843044
0.813845
0.755448
0.667527
0.615942
0.590961
0.583175
0.61724
0.663958
0.708081
0.791135
0.873216
0.924152
0.862835
0.764532
0.666229
0.590961
0.535159
0.458593
0.414795
0.401817
0.398249
0.435883
0.492658
0.605236
0.71684
0.811899
0.898198
0.988714
1.042894
1.0111
0.952702
0.868674
0.792757
0.733062
0.666878
0.624702
0.587392
0.579606
0.595827
0.637355
0.713596
0.786918
0.860564
0.917339
0.974115
1.020508
0.968599
0.910526
0.822605
0.730467
0.646763
0.570846
0.501418
0.462486
0.459566
0.477734
0.553651
0.65974
0.771994
0.905335
1.024402
1.119784
1.134384
1.095777
1.03381
0.962435
0.880354
0.740524
0.610102
0.528346
0.481303
0.48617
0.512773
0.566629
0.591285
0.643843
0.725924
0.816765
0.889762
0.880354
0.870621
0.833636
0.796651
0.750257
0.677909
0.63703
0.61432
0.62016
0.640599
0.703539
0.776536
0.84564
0.924152
1.002016
1.066902
1.120758
1.058142
0.95108
0.816765
0.690886
0.578308
0.477734
0.396951
0.358343
0.342771
0.347637
0.421608
0.528995
0.627946
0.753501
0.867701
0.960489
0.979306
0.936805
0.869323
0.792757
0.712298
0.627297
0.566629
0.52283
0.487467
0.501742
0.535159
0.617889
0.685371
0.741173
0.796002
0.873216
0.921232
0.875812
0.829094
0.750581
0.67142
0.60556
0.535159
0.480979
0.447238
0.458917
0.5118
0.600045
0.700294
0.810277
0.953351
1.088639
1.187915
1.215167
1.089937
0.959515
0.808006
0.685046
0.555273
0.432314
0.362886
0.366454
0.408955
0.450482
0.542621
0.650332
0.749608
0.879705
1.014993
1.134708
1.176884
1.132762
1.031863
0.896575
0.798273
0.741497
0.7256
0.701592
0.613996
0.540998
0.503689
0.5543
0.631515
0.715543
0.775563
0.819361
0.840449
0.777185
0.718463
0.633137
0.544567
0.468001
0.388516
0.341149
0.299297
0.30903
0.359641
0.45762
0.574739
0.689264
0.797624
0.88814
0.967626
1.016615
0.955622
0.880678
0.773616
0.665905
0.56014
0.464433
0.387867
0.356721
0.361588
0.378458
0.45178
0.553327
0.669473
0.809303
0.953675
1.070795
1.104212
1.075013
1.005909
0.912797
0.808006
0.696077
0.63995
0.60264
0.582201
0.596476
0.601343
0.659416
0.735333
0.813845
0.882625
0.943943
0.959515
0.896575
0.844342
0.778158
0.72852
0.681153
0.609778
0.539376
0.474166
0.468001
0.500769
0.562087
0.657794
0.756745
0.846289
0.91085
0.971844
0.99131
0.906957
0.858293
0.806384
0.743119
0.667202
0.573117
0.484872
0.450806
0.464757
0.518937
0.605236
0.693806
0.763883
0.832014
0.892682
0.932263
0.889438
0.814494
0.72268
0.625351
0.549109
0.478059
0.446264
0.42907
0.402466
0.427447
0.474814
0.563384
0.629893
0.697374
0.764856
0.836231
0.875163
0.816765
0.749932
0.656172
0.572793
0.501418
0.424528
0.358343
0.310328
0.295728
0.310328
0.379107
0.480654
0.604911
0.761288
0.908579
1.039325
1.122055
1.088639
1.031215
0.893331
0.730467
0.603289
0.530617
0.460864
0.374241
0.340175
0.352179
0.412524
0.490387
0.58285
0.69705
0.836231
0.964706
0.99131
0.961462
0.907931
0.827796
0.752852
0.646439
0.555273
0.46573
0.406035
0.42615
0.482925
0.580255
0.661038
0.740524
0.838178
0.953351
1.036081
1.015966
0.946538
0.799895
0.679855
0.607183
0.526075
0.466379
0.413497
0.390787
0.399871
0.456322
0.538403
0.613022
0.704836
0.771994
0.84272
0.875487
0.821956
0.761288
0.675638
0.592908
0.50888
0.441722
0.382027
0.351855
0.354126
0.37489
0.443669
0.528021
0.606209
0.695428
0.78854
0.878407
0.89398
0.884247
0.856995
0.808655
0.769398
0.726898
0.736631
0.762261
0.776536
0.793406
0.775563
0.750581
0.748635
0.754474
0.768101
0.806059
0.826174
0.756097
0.68829
0.618538
0.528995
0.433936
0.341149
0.277236
0.261663
0.293782
0.339851
0.436532
0.55722
0.672069
0.807357
0.888465
0.957244
0.962435
0.881003
0.810926
0.713921
0.62016
0.542296
0.477085
0.42031
0.378458
0.376836
0.387867
0.467353
0.586094
0.70289
0.82812
0.94816
1.050356
1.055223
1.004936
0.904362
0.780753
0.670122
0.540025
0.440749
0.34634
0.290862
0.302541
0.342771
0.416417
0.491685
0.570197
0.655523
0.772318
0.861212
0.845964
0.816116
0.753177
0.682126
0.609778
0.532563
0.466704
0.413172
0.384298
0.396302
0.466055
0.564682
0.656821
0.793082
0.928694
1.039974
1.077933
1.035757
0.975088
0.881003
0.774265
0.664931
0.585121
0.53159
0.499147
0.506609
0.511475
0.555922
0.624702
0.681153
0.760314
0.849208
0.930641
0.935507
0.878407
0.791135
0.686668
0.575064
0.449184
0.36613
0.311625
0.312599
0.383649
0.469299
0.580904
0.674664
0.752852
0.801517
0.86835
0.905984
0.83688
0.769074
0.656496
0.559167
0.481303
0.413172
0.370347
0.359641
0.366779
0.392733
0.448211
0.544243
0.61724
0.710027
0.79957
0.890411
0.91669
0.859266
0.788864
0.684722
0.580904
0.487792
0.414146
0.341797
0.275938
0.263285
0.27756
0.344717
0.433612
0.518613
0.613022
0.70873
0.783998
0.774914
0.732738
0.67434
0.609778
0.566304
0.513422
0.490712
0.470272
0.461188
0.493631
0.554625
0.655847
0.731115
0.811574
0.855373
0.895602
0.92545
0.858293
0.808655
0.748959
0.690237
0.622106
0.517639
0.404088
0.335958
0.309679
0.342446
0.429718
0.559167
0.677584
0.813521
0.906957
1.004936
1.002989
0.904362
0.798922
0.662336
0.510502
0.358668
0.250632
0.173418
0.136757
0.172769
0.226624
0.309679
0.413821
0.504338
0.609129
0.707107
0.772643
0.75415
0.68829
0.590637
0.478708
0.390787
0.292484
0.259067
0.239277
0.228895
0.262961
0.310976
0.382351
0.464108
0.55138
0.633461
0.723978
0.786918
0.747986
0.69997
0.619186
0.535159
0.461513
0.388516
0.336282
0.329469
0.342446
0.383649
0.459242
0.555598
0.628271
0.736306
0.819036
0.914095
0.958542
0.95692
0.947836
0.92253
0.866403
0.763883
0.663958
0.569548
0.489089
0.441074
0.422581
0.472219
0.576686
0.683748
0.83396
0.996176
1.101292
1.090261
1.034135
0.955622
0.840773
0.758368
0.665905
0.603289
0.531266
0.47741
0.482601
0.517964
0.557869
0.586094
0.626648
0.667851
0.72852
0.772643
0.726573
0.676286
0.589339
0.509529
0.438154
0.363534
0.31487
0.302217
0.308381
0.352504
0.424528
0.526399
0.601992
0.705485
0.772643
0.84564
0.856022
0.80249
0.731115
0.640275
0.540998
0.448211
0.379432
0.30903
0.24901
0.230842
0.244468
0.30319
0.381703
0.460539
0.547163
0.635732
0.683424
0.657145
0.59453
0.520235
0.445616
0.405062
0.349584
0.335633
0.31195
0.302866
0.319087
0.342771
0.413821
0.490387
0.60264
0.709378
0.842071
0.963733
0.950756
0.90274
0.840449
0.751879
0.63995
0.554949
0.516666
0.504987
0.504013
0.517964
0.560789
0.63411
0.691535
0.738902
0.752528
0.795353
0.802166
0.754799
0.701917
0.631515
0.549758
0.474814
0.419012
0.367103
0.322656
0.310976
0.312923
0.367103
0.438478
0.498822
0.564358
0.64579
0.700619
0.680504
0.641572
0.581877
0.534185
0.506609
0.430692
0.398249
0.355748
0.330767
0.362561
0.430692
0.536132
0.656172
0.758368
0.841747
0.931939
0.992932
0.944591
0.880029
0.784971
0.686993
0.593556
0.5118
0.461513
0.444967
0.466704
0.498822
0.556896
0.639301
0.718787
0.837205
0.935832
1.057169
1.103238
1.061062
0.974115
0.877758
0.763234
0.67142
0.640599
0.633786
0.619186
0.63411
0.665905
0.71684
0.790486
0.85959
0.93421
1.011424
1.059116
1.026673
0.962435
0.877758
0.805735
0.751555
0.6831
0.629244
0.587392
0.621782
0.68829
0.775887
0.871919
0.968275
1.061711
1.128544
1.171694
1.172991
1.079231
0.988714
0.873865
0.771669
0.685046
0.613671
0.569548
0.557544
0.579606
0.615942
0.676611
0.777834
0.868674
0.978981
1.078906
1.186617
1.214519
1.185644
1.132762
1.055871
0.965031
0.87711
0.821307
0.784971
0.749608
0.751879
0.783673
0.84272
0.91669
0.990661
1.103238
1.22782
1.321905
1.300168
1.244691
1.163583
1.075662
1.007531
0.925774
0.862186
0.804112
0.785944
0.798273
0.874839
1.015317
1.174289
1.330665
1.454922
1.543168
1.546088
1.418586
1.318986
1.241771
1.124651
0.985794
0.847262
0.764207
0.75415
0.788215
0.848235
0.929343
1.026673
1.131464
1.2966
1.46498
1.641146
1.706357
1.641146
1.496125
1.361811
1.274538
1.205434
1.164232
1.125949
1.115242
1.134708
1.165205
1.223278
1.283298
1.320932
1.365055
1.403662
1.414693
1.329367
1.223927
1.113945
1.012722
0.949458
0.859915
0.807357
0.769723
0.776536
0.812548
0.888465
0.981252
1.073715
1.168774
1.243069
1.318012
1.363108
1.2966
1.218412
1.11946
1.026673
0.938427
0.853751
0.777834
0.740524
0.738902
0.764207
0.837205
0.942645
1.040299
1.153201
1.261886
1.378681
1.409826
1.388414
1.335532
1.262859
1.184346
1.098372
1.051005
1.000394
0.939076
0.920583
0.94816
1.035757
1.129842
1.178182
1.219709
1.27097
1.29368
1.22782
1.140224
1.055871
0.996825
0.966653
0.954324
0.970546
0.971844
1.00526
1.058142
1.104536
1.175262
1.263508
1.365379
1.447785
1.485419
1.468549
1.354349
1.261561
1.156121
1.048085
0.953675
0.881003
0.828445
0.793082
0.781078
0.760639
0.770372
0.826174
0.915717
1.041272
1.171369
1.302764
1.354349
1.333585
1.255397
1.135357
1.000069
0.878083
0.762585
0.667851
0.598747
0.580904
0.607183
0.679531
0.77102
0.86835
0.973141
1.081826
1.157094
1.13633
1.091883
1.017588
0.939725
0.878732
0.808006
0.759665
0.709703
0.687966
0.698348
0.746364
0.807032
0.867701
0.933885
1.00818
1.084097
1.15385
1.133735
1.101292
1.05652
0.983523
0.916041
0.858293
0.832662
0.858941
0.92837
1.009478
1.134708
1.221656
1.246313
1.247935
1.212247
1.192457
1.136655
1.063009
1.001367
0.922854
0.852453
0.782376
0.728844
0.66266
0.607507
0.611076
0.629568
0.677584
0.745066
0.829743
0.928694
1.029917
1.091883
1.060413
1.00818
0.927397
0.835907
0.774914
0.729818
0.72852
0.735333
0.7827
0.846613
0.926423
1.026348
1.120758
1.187266
1.19635
1.203163
1.200892
1.11946
1.01694
0.898198
0.786593
0.703539
0.642546
0.600369
0.577335
0.584148
0.608805
0.681153
0.758043
0.850182
0.949458
1.02505
1.081826
1.058467
1.013695
0.9394
0.858941
0.770047
0.672069
0.60848
0.56598
0.544567
0.610102
0.698023
0.79957
0.91961
1.018886
1.102914
1.1824
1.218736
1.152228
1.08215
0.986443
0.904362
0.838178
0.752203
0.686344
0.65455
0.680504
0.739551
0.827472
0.923828
1.001691
1.097399
1.166503
1.228145
1.252153
1.191484
1.137953
1.037703
0.926099
0.845315
0.769074
0.705485
0.652603
0.612373
0.591285
0.637355
0.673691
0.711325
0.794704
0.877758
0.941023
0.922854
0.880678
0.816441
0.754799
0.702241
0.647088
0.618538
0.595503
0.567277
0.580255
0.608156
0.676935
0.750257
0.823578
0.896251
0.98547
1.047112
1.006558
0.960164
0.891709
0.827472
0.776536
0.714894
0.684722
0.658118
0.658118
0.687642
0.738253
0.780429
0.821632
0.878732
0.93129
0.985794
1.015317
0.939076
0.854724
0.762261
0.690561
0.623729
0.553002
0.482601
0.44594
0.460864
0.515044
0.640275
0.78562
0.917664
1.062684
1.201541
1.309253
1.324176
1.245988
1.115567
0.979954
0.854399
0.697699
0.536132
0.389164
0.275613
0.241224
0.235708
0.290213
0.367103
0.461513
0.593881
0.727547
0.825849
0.803464
0.756097
0.650332
0.545216
0.484872
0.444642
0.414795
0.380729
0.379107
0.40052
0.467353
0.559491
0.66558
0.774265
0.872568
0.955622
0.996176
0.926423
0.814494
0.683748
0.564033
0.453078
0.339526
0.244792
0.177311
0.166929
0.179257
0.239277
0.323629
0.408955
0.503364
0.592908
0.681153
0.687642
0.646114
0.567926
0.478708
0.393382
0.312923
0.261987
0.21754
0.175689
0.195803
0.239277
0.322007
0.421283
0.522506
0.629244
0.737604
0.806059
0.759665
0.714245
0.627622
0.536132
0.453402
0.370672
0.310328
0.259392
0.249659
0.284049
0.370996
0.465406
0.563384
0.696726
0.819361
0.91085
0.949458
0.923503
0.87419
0.792109
0.709703
0.618538
0.517639
0.438154
0.399871
0.406359
0.411226
0.443993
0.481627
0.54035
0.620484
0.698997
0.783673
0.785944
0.734035
0.646763
0.564682
0.480979
0.395653
0.345042
0.31487
0.302541
0.33174
0.366779
0.445616
0.530292
0.604911
0.684722
0.769398
0.835582
0.79438
0.744417
0.66266
0.578957
0.501418
0.425176
0.391436
0.370672
0.35737
0.378134
0.463135
0.565655
0.653576
0.742146
0.820659
0.909553
0.966653
0.925774
0.860239
0.756097
0.656821
0.576037
0.508231
0.453402
0.402791
0.403764
0.422905
0.49428
0.587717
0.69997
0.816441
0.932912
1.047436
1.087017
1.06528
0.9965
0.899171
0.779456
0.634435
0.512124
0.404088
0.345366
0.379107
0.453726
0.571495
0.671096
0.728195
0.784647
0.873865
0.960164
0.96795
0.958218
0.886194
0.78854
0.637679
0.510177
0.435558
0.386569
0.370347
0.409604
0.518937
0.64287
0.74539
0.858941
0.949782
1.032837
1.065604
0.996176
0.908579
0.808655
0.732413
0.667202
0.60848
0.553976
0.5118
0.510502
0.522181
0.580255
0.635732
0.696077
0.761936
0.827472
0.891385
0.880678
0.84272
0.781402
0.69705
0.616267
0.542296
0.499796
0.44594
0.404737
0.427123
0.47157
0.563709
0.671744
0.77686
0.894953
1.014993
1.102914
1.073391
1.031863
0.934534
0.838502
0.741497
0.662011
0.59161
0.544567
0.518937
0.525101
0.588041
0.681802
0.775238
0.890736
0.980603
1.063658
1.104861
1.058467
1.011424
0.932912
0.831689
0.731115
0.649359
0.584797
0.564358
0.593881
0.646439
0.74539
0.818387
0.853426
0.901766
0.98839
1.089937
1.105185
1.079879
1.030241
0.962111
0.909553
0.838178
0.786593
0.740199
0.703539
0.701592
0.703863
0.709378
0.718787
0.755772
0.813197
0.881327
0.931939
0.883923
0.840124
0.77686
0.730791
0.697699
0.67726
0.646114
0.640599
0.624053
0.651954
0.709054
0.77394
0.829094
0.903064
0.961786
1.02505
1.048085
0.978332
0.900144
0.796326
0.70873
0.626648
0.576686
0.526723
0.500769
0.532563
0.573766
0.672069
0.771669
0.865754
0.966977
1.083448
1.172342
1.186293
1.15093
1.075337
0.968924
0.870297
0.762585
0.682126
0.606858
0.546838
0.553651
0.609778
0.727547
0.856022
0.989039
1.11654
1.235607
1.30244
1.269023
1.238526
1.151903
1.052952
0.936805
0.800868
0.636057
0.530292
0.480654
0.485196
0.540674
0.610427
0.685695
0.770696
0.842395
0.918312
0.957893
0.915717
0.87419
0.821307
0.782051
0.758692
0.777509
0.780753
0.766154
0.787566
0.86543
0.9965
1.098696
1.170071
1.206732
1.218736
1.2249
1.177858
1.087666
0.990012
0.890736
0.82001
0.724627
0.664282
0.618862
0.592908
0.620809
0.684397
0.788215
0.893007
1.000069
1.094479
1.190511
1.244366
1.193106
1.128869
1.032512
0.927397
0.821632
0.726898
0.647412
0.603289
0.573766
0.58577
0.65455
0.745066
0.825525
0.939725
1.032188
1.129517
1.161961
1.119136
1.063982
0.988065
0.911824
0.818387
0.74247
0.674015
0.624377
0.637679
0.676286
0.766803
0.89398
1.016615
1.135033
1.259615
1.330341
1.290111
1.217438
1.136006
1.051654
0.976386
0.890736
0.837205
0.772643
0.726249
0.739875
0.788864
0.884572
0.957244
1.010775
1.06236
1.136979
1.229442
1.215816
1.203812
1.146063
1.072742
1.000394
0.938427
0.874839
0.83688
0.806059
0.782051
0.75999
0.758368
0.81709
0.924477
1.018562
1.111998
1.118487
1.026997
0.925774
0.818063
0.74831
0.672718
0.621782
0.586094
0.573117
0.608805
0.668176
0.763883
0.870945
0.963733
1.057494
1.160987
1.229118
1.213545
1.158716
1.076311
0.97379
0.884896
0.784322
0.718787
0.656496
0.610427
0.61724
0.664282
0.747661
0.841747
0.950107
1.053925
1.160014
1.231065
1.192782
1.136979
1.04549
0.95108
0.867701
0.795677
0.741497
0.727222
0.736955
0.780429
0.874839
1.006233
1.105834
1.203163
1.263508
1.301142
1.288165
1.201866
1.109078
1.021482
0.964706
0.90566
0.878083
0.854399
0.854075
0.88814
0.900144
0.935507
0.992283
1.022455
1.061711
1.111674
1.127895
1.058791
0.968599
0.851804
0.714245
0.614969
0.528995
0.490712
0.469299
0.469948
0.520559
0.606209
0.713921
0.80541
0.888465
0.946214
1.024402
1.09383
1.091559
1.105509
1.089937
1.049383
0.980928
0.902415
0.833311
0.797299
0.771669
0.75999
0.777509
0.803139
0.819685
0.878732
0.940698
1.016615
1.03673
1.010451
0.965355
0.902091
0.849208
0.786269
0.743768
0.701917
0.669798
0.677909
0.711001
0.778482
0.849533
0.926423
1.01402
1.096101
1.143144
1.114269
1.061711
0.998123
0.929992
0.907931
0.87419
0.869972
0.836556
0.763883
0.699646
0.710352
0.783349
0.846289
0.920259
1.018237
1.137628
1.25345
1.294329
1.307955
1.25345
1.17364
1.108105
1.019535
0.917988
0.866403
0.81709
0.75707
0.744417
0.774265
0.816765
0.885545
0.957893
1.039974
1.049707
1.008504
0.965355
0.913122
0.875487
0.819361
0.775887
0.72268
0.675313
0.664282
0.655198
0.69413
0.755448
0.834933
0.918637
1.009478
1.058467
1.027321
0.988065
0.935832
0.844018
0.774265
0.710352
0.681802
0.654225
0.64579
0.686019
0.755123
0.851804
0.929343
0.997474
1.03965
1.102914
1.154823
1.122704
1.089937
1.012073
0.934858
0.848235
0.75707
0.676286
0.622106
0.600045
0.60264
0.656821
0.738253
0.820334
0.926748
1.021157
1.118811
1.163907
1.160014
1.120758
1.043867
0.954973
0.863159
0.811899
0.766803
0.726249
0.74247
0.776536
0.840449
0.92837
1.034459
1.138602
1.233336
1.262859
1.172018
1.073066
0.990661
0.878083
0.785295
0.685046
0.615293
0.543918
0.50304
0.505635
0.568575
0.667202
0.787242
0.932587
1.044841
1.133086
1.150605
1.074364
1.007531
0.925774
0.84272
0.764532
0.684397
0.612698
0.557869
0.532563
0.550083
0.634435
0.746364
0.852128
0.971844
1.06236
1.148334
1.166178
1.130166
1.053925
0.945565
0.829094
0.709378
0.613347
0.535159
0.491685
0.511475
0.561438
0.639301
0.729493
0.807357
0.884572
0.973141
1.037379
1.015966
0.972492
0.894629
0.806384
0.745715
0.690886
0.688939
0.699646
0.724951
0.763883
0.832662
0.917988
0.962111
0.97963
1.004287
1.051654
1.077284
1.013371
0.931614
0.843369
0.778807
0.736955
0.698997
0.650007
0.567926
0.50012
0.499471
0.570197
0.658767
0.72268
0.820983
0.928045
1.031863
1.057169
1.026348
0.955298
0.867701
0.785944
0.694779
0.653252
0.630217
0.637355
0.676286
0.71684
0.767452
0.824227
0.88814
0.976061
1.071444
1.129193
1.092857
1.042894
0.988065
0.93421
0.892033
0.821632
0.759016
0.6831
0.641248
0.644492
0.696077
0.773616
0.851804
0.933236
0.995203
1.058791
1.101616
1.058791
0.999096
0.920583
0.847586
0.783024
0.713272
0.652279
0.626973
0.62308
0.645141
0.706134
0.779456
0.853426
0.980279
1.112647
1.244691
1.295951
1.286867
1.245664
1.193755
1.142819
1.047112
0.971195
0.887167
0.821307
0.798273
0.814494
0.872568
0.931939
0.98839
1.058467
1.149632
1.229442
1.223603
1.174613
1.107456
1.019535
0.927721
0.831365
0.76583
0.708081
0.68829
0.693157
0.75707
0.869972
0.977035
1.096425
1.19927
1.306982
1.382574
1.359539
1.306982
1.218087
1.102914
0.951404
0.806708
0.665256
0.569873
0.541323
0.56014
0.622106
0.69997
0.778158
0.889438
0.991634
1.088315
1.118162
1.088315
1.030566
0.968275
0.915717
0.854724
0.823903
0.801517
0.792433
0.841422
0.911499
0.991634
1.063333
1.123029
1.181426
1.257019
1.291409
1.222629
1.141197
1.036081
0.9394
0.861212
0.788215
0.752852
0.716192
0.721382
0.758043
0.829743
0.924801
1.009802
1.112647
1.210301
1.292382
1.338451
1.304062
1.270645
1.221007
1.157094
1.066253
0.933561
0.796975
0.69705
0.648385
0.646439
0.72852
0.816116
0.884247
0.961462
1.01402
1.08507
1.090586
1.075013
1.026024
0.972817
0.92837
0.875163
0.837853
0.808006
0.774914
0.785295
0.839151
0.943294
1.052952
1.156121
1.243069
1.312821
1.34494
1.283298
1.21679
1.117838
0.986119
0.865754
0.739551
0.635732
0.543918
0.4972
0.491036
0.540025
0.626648
0.718463
0.826498
0.914744
1.010775
1.069173
1.043219
0.990985
0.920259
0.842395
0.773616
0.710352
0.658118
0.63703
0.646763
0.659416
0.716192
0.786593
0.85667
0.946214
1.03089
1.123678
1.128544
1.086044
1.015642
0.93421
0.856022
0.763559
0.700294
0.651954
0.618538
0.647088
0.713272
0.821956
0.932587
1.037703
1.143144
1.25345
1.3537
1.33618
1.292707
1.235931
1.127571
0.961462
0.792109
0.702241
0.639301
0.595503
0.599396
0.650332
0.728195
0.801841
0.89982
0.975737
1.057818
1.08215
1.041921
0.995852
0.951729
0.913446
0.879705
0.816441
0.737928
0.679531
0.676935
0.683748
0.73436
0.781727
0.817739
0.886843
0.952702
1.029592
1.003638
0.955298
0.896251
0.827796
0.750906
0.657145
0.589988
0.537105
0.503689
0.50888
0.557544
0.631839
0.717814
0.792757
0.877758
0.969573
1.046138
1.018886
0.980928
0.924477
0.850182
0.781402
0.699321
0.641248
0.604911
0.599072
0.622755
0.683748
0.762261
0.833636
0.926423
0.995203
1.077933
1.098696
1.030241
0.940374
0.836231
0.74247
0.667851
0.604911
0.568575
0.541323
0.566629
0.609454
0.678233
0.747986
0.805086
0.88522
0.929668
0.988065
1.005909
0.977035
0.918312
0.864457
0.827796
0.792757
0.772967
0.731115
0.690886
0.711325
0.778807
0.875487
0.958542
1.0111
1.030566
1.013046
0.997474
0.915717
0.84856
0.751879
0.654874
0.586094
0.543918
0.526075
0.532563
0.540674
0.568575
0.630217
0.712298
0.791135
0.890736
0.974115
1.057494
1.062684
0.987092
0.914744
0.829743
0.747013
0.674989
0.613022
0.56014
0.515368
0.510177
0.526075
0.591285
0.661038
0.728844
0.805735
0.881652
0.957244
0.955298
0.92253
0.861537
0.786918
0.718463
0.623729
0.562087
0.511151
0.46865
0.468975
0.508231
0.59161
0.697374
0.801841
0.914095
1.021806
1.109403
1.071444
1.00818
0.916366
0.855048
0.819685
0.795028
0.763234
0.706134
0.603614
0.528995
0.543918
0.575388
0.628271
0.743444
0.844342
0.97379
1.054249
1.063009
1.057818
1.034459
0.975088
0.86835
0.749284
0.659092
0.598098
0.580255
0.591285
0.63703
0.666229
0.67726
0.74539
0.851155
0.942969
0.960489
0.953027
0.911824
0.854075
0.798922
0.710676
0.646763
0.58577
0.541972
0.535159
0.541972
0.582526
0.644817
0.71684
0.785944
0.858293
0.917664
0.87127
0.819361
0.736306
0.644168
0.567926
0.499147
0.442371
0.412524
0.415119
0.452429
0.534834
0.628919
0.707107
0.816765
0.919935
1.027646
1.069173
1.020184
0.954324
0.862835
0.764856
0.693481
0.641897
0.619186
0.601343
0.62308
0.64871
0.725276
0.792433
0.876136
0.98547
1.095777
1.154823
1.108105
1.052627
0.998447
0.915393
0.83396
0.739875
0.675638
0.589339
0.512773
0.504987
0.555273
0.666878
0.769723
0.833636
0.905335
0.990661
1.066902
1.037379
0.995203
0.908904
0.814494
0.723005
0.635408
0.554949
0.495578
0.469948
0.486818
0.547812
0.630217
0.70581
0.79957
0.859266
0.937778
0.964057
0.904037
0.823254
0.736631
0.661687
0.603289
0.5689
0.555273
0.545865
0.577335
0.620484
0.697374
0.767452
0.829418
0.896251
0.965031
1.008504
0.97087
0.911824
0.818712
0.724302
0.655198
0.577984
0.532888
0.494605
0.46573
0.482276
0.525101
0.596801
0.669149
0.735333
0.801517
0.875163
0.937129
0.889762
0.844018
0.762585
0.689588
0.638652
0.593556
0.556896
0.549758
0.555922
0.603614
0.695428
0.798597
0.875163
0.951404
1.018562
1.088315
1.088639
1.018562
0.95108
0.875487
0.785295
0.704836
0.651305
0.613347
0.582526
0.593232
0.614969
0.689913
0.762261
0.820659
0.864132
0.91669
0.95984
0.924477
0.865754
0.792757
0.711974
0.661038
0.619835
0.61724
0.638328
0.661363
0.710352
0.746039
0.759341
0.714894
0.696077
0.706134
0.730791
0.750906
0.677584
0.625675
0.539376
0.454375
0.384298
0.321358
0.274965
0.249659
0.247388
0.269449
0.338553
0.418039
0.494929
0.596476
0.69413
0.794704
0.82001
0.790811
0.743768
0.688939
0.630866
0.565331
0.518613
0.475788
0.43718
0.445291
0.458917
0.519586
0.569873
0.619835
0.690237
0.784322
0.860888
0.857319
0.824227
0.771345
0.717814
0.6685
0.60264
0.566304
0.530941
0.513746
0.521533
0.550731
0.609454
0.658118
0.706459
0.774589
0.874514
0.943618
0.865754
0.773616
0.656172
0.542945
0.470597
0.436856
0.413821
0.428421
0.462162
0.535483
0.653252
0.760314
0.85667
0.971844
1.068524
1.117513
1.071444
0.935507
0.798273
0.640599
0.530617
0.446913
0.404088
0.378134
0.351206
0.377485
0.405711
0.490387
0.577984
0.66558
0.736306
0.786918
0.812872
0.779131
0.738902
0.680504
0.611076
0.553327
0.47741
0.433936
0.396302
0.39176
0.423879
0.475463
0.561438
0.660065
0.760639
0.838827
0.927721
0.994229
0.948809
0.907606
0.827147
0.744417
0.673367
0.628919
0.590312
0.58577
0.609454
0.670771
0.769723
0.878732
0.962435
1.063333
1.15677
1.233011
1.228794
1.144117
1.013046
0.861537
0.729169
0.613671
0.533861
0.480654
0.445291
0.477085
0.543918
0.633786
0.710676
0.795677
0.902415
1.024402
1.112971
1.107132
1.064631
0.999096
0.925125
0.909553
0.904037
0.920583
0.901766
0.881003
0.863483
0.868674
0.91669
0.949458
0.986119
0.991958
1.006233
1.016291
0.935183
0.864457
0.775887
0.696077
0.644817
0.6114
0.578957
0.576362
0.590312
0.641897
0.731764
0.837529
0.932912
1.042245
1.137304
1.217763
1.226847
1.179155
1.129193
1.063333
0.9965
0.902415
0.825525
0.747986
0.686668
0.686019
0.703539
0.771669
0.8398
0.917664
0.991634
1.095452
1.168449
1.152552
1.105185
1.036081
0.975737
0.944267
0.900144
0.890411
0.904362
0.966004
1.054574
1.156121
1.260912
1.292058
1.294653
1.302115
1.345264
1.397498
1.358566
1.310226
1.228469
1.14509
1.053276
0.957244
0.856995
0.805086
0.766803
0.753826
0.807357
0.927397
1.07404
1.250206
1.408853
1.52792
1.529217
1.469522
1.417288
1.376086
1.318661
1.225225
1.144441
1.052627
0.970546
0.936156
0.932587
0.968275
0.994878
1.026348
1.092532
1.184995
1.252801
1.238202
1.193755
1.127895
1.053925
0.990661
0.909877
0.867701
0.829094
0.818712
0.846289
0.902091
0.992932
1.082799
1.187266
1.275512
1.37057
1.441296
1.411449
1.372517
1.301142
1.223927
1.133086
1.04257
0.953675
0.892033
0.861537
0.859266
0.89106
0.954324
1.003638
1.102914
1.214194
1.324176
1.361486
1.346887
1.313795
1.263832
1.189213
1.069173
0.957893
0.854075
0.779456
0.761612
0.760639
0.813197
0.850831
0.89982
0.983523
1.104536
1.203163
1.22782
1.221007
1.200892
1.184995
1.179804
1.138277
1.125949
1.094154
1.044516
1.023428
1.045165
1.0682
1.058142
1.063009
1.094803
1.148334
1.176236
1.102265
1.021482
0.915717
0.805086
0.707432
0.621782
0.54035
0.490387
0.470921
0.480979
0.543918
0.63995
0.7256
0.83104
0.9394
1.047436
1.083124
1.059116
1.010451
0.941347
0.878083
0.803139
0.757394
0.710676
0.662011
0.649683
0.654874
0.711325
0.769074
0.835907
0.900144
0.990336
1.056196
1.047112
1.019211
0.959515
0.893656
0.846937
0.783998
0.735657
0.70581
0.711001
0.750581
0.809303
0.894953
0.987416
1.08215
1.165529
1.262859
1.310875
1.26221
1.203812
1.119136
1.040299
0.967302
0.891709
0.802166
0.743768
0.730142
0.771994
0.86543
0.97087
1.055223
1.15677
1.249233
1.314119
1.296275
1.201866
1.079555
0.957244
0.857319
0.753826
0.686019
0.62308
0.585121
0.594854
0.626973
0.700294
0.771669
0.873541
0.973466
1.081177
1.147037
1.133735
1.11362
1.075662
1.03673
1.005909
0.929019
0.839151
0.770696
0.739551
0.739551
0.758692
0.804437
0.849533
0.905011
0.93421
0.991958
1.051654
1.026024
0.978981
0.902415
0.82293
0.765181
0.718463
0.667202
0.641572
0.652927
0.686019
0.758368
0.852777
0.935183
1.038677
1.150605
1.252801
1.254424
1.191159
1.115891
1.033486
0.965355
0.921881
0.912473
0.879705
0.829743
0.857644
0.893656
0.933885
0.944591
0.956271
0.990012
1.050681
1.106158
1.109078
1.111349
1.077933
1.020833
0.974115
0.933236
0.909877
0.860564
0.813845
0.757394
0.754474
0.844991
0.951404
1.073066
1.160014
1.237553
1.291733
1.253775
1.191159
1.081826
0.934858
0.81417
0.699646
0.598747
0.534185
0.510826
0.521533
0.585446
0.673691
0.753501
0.856022
0.949458
1.051978
1.068524
1.044192
1.001042
0.947511
0.89398
0.822605
0.774589
0.724302
0.675313
0.670447
0.695752
0.75415
0.817739
0.877434
0.937778
1.014344
1.067551
1.035432
0.994229
0.924801
0.846613
0.799246
0.746364
0.726573
0.711325
0.728195
0.765181
0.840449
0.936156
1.035108
1.154174
1.233984
1.29076
1.309577
1.266752
1.225549
1.167476
1.090586
0.997798
0.898847
0.79957
0.720409
0.693157
0.715867
0.788215
0.87711
0.955298
1.051005
1.126922
1.180778
1.148659
1.108105
1.041596
0.939076
0.863808
0.79146
0.749932
0.71684
0.703863
0.737604
0.799246
0.86251
0.920259
0.961786
1.014993
1.098372
1.168125
1.143792
1.103887
1.029268
0.95108
0.872892
0.779131
0.711325
0.630542
0.571495
0.547487
0.601018
0.705485
0.803139
0.929343
1.033486
1.140873
1.184995
1.132762
1.061711
0.962111
0.854399
0.756745
0.668825
0.595179
0.555922
0.561762
0.595179
0.666229
0.761612
0.853426
0.967302
1.053276
1.129517
1.11362
1.058467
0.980928
0.897224
0.834609
0.744093
0.694455
0.66266
0.667851
0.719111
0.807681
0.93129
1.040948
1.123678
1.198946
1.297249
1.371543
1.353375
1.31055
1.20803
1.086044
0.977359
0.876785
0.812548
0.755448
0.724627
0.690886
0.714245
0.782051
0.860888
0.964706
1.037379
1.095452
1.103563
1.044841
0.989687
0.926423
0.87127
0.841098
0.825525
0.783673
0.746039
0.73436
0.740199
0.815792
0.923828
1.004287
1.076635
1.132762
1.186942
1.15677
1.105185
1.043543
0.976386
0.911499
0.83104
0.780753
0.742795
0.713921
0.722356
0.75999
0.825525
0.886194
0.93129
0.967626
1.018237
1.057494
1.003314
0.952702
0.86835
0.782376
0.711001
0.638004
0.600369
0.574739
0.57993
0.609778
0.679855
0.775563
0.861861
0.952702
1.021806
1.097723
1.129842
1.095452
1.044516
0.982225
0.906633
0.849533
0.82812
0.812548
0.797948
0.858941
0.949458
1.051978
1.127571
1.151903
1.175262
1.220683
1.269347
1.228794
1.166827
1.080528
0.988065
0.908904
0.823903
0.769398
0.70581
0.661038
0.672393
0.723005
0.82812
0.954973
1.034783
1.099994
1.171045
1.220034
1.124651
1.004287
0.879705
0.766803
0.686019
0.619511
0.577659
0.568251
0.594854
0.64871
0.750257
0.860888
0.946862
1.049058
1.128544
1.209328
1.220358
1.166178
1.091883
1.010127
0.921557
0.849208
0.789189
0.731764
0.676611
0.672069
0.702565
0.776536
0.856346
0.919935
1.002665
1.083448
1.152876
1.143792
1.101292
1.027321
0.935507
0.855697
0.757394
0.703214
0.669473
0.661363
0.693157
0.740848
0.831365
0.924477
1.006233
1.087666
1.177858
1.257992
1.248259
1.219061
1.15677
1.069822
0.944591
0.809628
0.723329
0.666229
0.647736
0.69121
0.819361
0.959191
1.056845
1.158067
1.226198
1.293031
1.261237
1.160987
1.066902
0.964057
0.85148
0.753177
0.672718
0.601667
0.544567
0.543918
0.571819
0.647736
0.749608
0.829743
0.944916
1.04841
1.122704
1.116216
1.087666
1.029268
0.949782
0.886518
0.801517
0.753826
0.70289
0.67726
0.688939
0.737928
0.807357
0.872243
0.934534
1.001691
1.087017
1.155472
1.108754
1.060413
0.987092
0.901118
0.815143
0.723978
0.650007
0.600045
0.57993
0.607507
0.680504
0.783024
0.878732
0.999096
1.090586
1.191808
1.229442
1.181426
1.119784
1.029592
0.929019
0.852777
0.826823
0.812872
0.767776
0.740848
0.749284
0.79146
0.839151
0.886843
0.987741
1.115891
1.225549
1.242095
1.248908
1.23074
1.17948
1.093181
0.963408
0.858941
0.749932
0.667527
0.64871
0.684397
0.763559
0.839476
0.916366
0.986767
1.058467
1.146063
1.150605
1.138602
1.052627
0.938427
0.829418
0.739551
0.662336
0.610751
0.579281
0.571495
0.607183
0.658118
0.717489
0.816441
0.905335
1.006558
1.04841
1.003638
0.946538
0.873865
0.789189
0.719111
0.6685
0.619835
0.572793
0.569873
0.581877
0.640599
0.719436
0.801841
0.923503
1.042894
1.134059
1.129842
1.088315
1.00234
0.900793
0.819036
0.726249
0.664931
0.603938
0.554625
0.565331
0.621458
0.69997
0.781078
0.857644
0.93421
1.014344
1.083448
1.054898
1.024077
0.965355
0.931939
0.929668
0.921557
0.919935
0.952053
0.990661
1.027321
1.101292
1.136979
1.083773
1.069173
1.083124
1.119784
1.112647
1.040299
0.959191
0.868026
0.77394
0.69413
0.621458
0.555922
0.50596
0.508555
0.530292
0.632488
0.756421
0.876136
1.016291
1.150281
1.234958
1.214843
1.167151
1.104861
1.006558
0.892682
0.769723
0.670122
0.591285
0.545541
0.560464
0.611725
0.681153
0.754799
0.838827
0.92253
1.015317
1.075013
1.010451
0.93421
0.833636
0.733062
0.650332
0.585121
0.539701
0.515044
0.514071
0.544243
0.620484
0.711325
0.809628
0.933561
1.041921
1.147361
1.179804
1.143144
1.086692
1.002665
0.889438
0.785944
0.691535
0.630542
0.585121
0.589014
0.601343
0.667851
0.741173
0.821632
0.914095
1.004936
1.06236
1.034783
0.997149
0.930965
0.876785
0.847586
0.836231
0.845964
0.853426
0.854399
0.882301
0.924152
0.986443
1.055547
1.120109
1.165205
1.23074
1.282325
1.234633
1.17948
1.072742
0.965031
0.892033
0.821632
0.768749
0.747337
0.738577
0.704836
0.696401
0.695103
0.696726
0.752528
0.820983
0.895278
0.894304
0.844666
0.778482
0.701592
0.625026
0.568251
0.52867
0.501742
0.496876
0.543918
0.596152
0.683424
0.774589
0.851155
0.955622
1.060089
1.142819
1.121731
1.056845
0.967626
0.872243
0.789513
0.714569
0.67142
0.652279
0.660389
0.69413
0.749608
0.82812
0.906957
0.990012
1.043867
1.100967
1.140873
1.057494
0.968924
0.861212
0.765181
0.667527
0.572144
0.505311
0.471895
0.469948
0.497525
0.574415
0.676935
0.780753
0.905011
1.023428
1.143792
1.203163
1.199919
1.187915
1.141521
1.080853
1.025699
1.005585
0.939076
0.815143
0.724627
0.673691
0.686668
0.721058
0.772318
0.859915
0.955298
1.033161
1.043219
1.051005
1.0682
1.091234
1.104212
1.073391
0.991634
0.868026
0.758368
0.706134
0.709703
0.738902
0.77102
0.806059
0.854075
0.91377
0.954973
0.908255
0.873216
0.801193
0.72852
0.667202
0.60556
0.560464
0.54035
0.533537
0.548136
0.605885
0.670447
0.750581
0.858941
0.969897
1.090586
1.128544
1.082475
0.988065
0.888789
0.789513
0.682126
0.607507
0.540674
0.480979
0.485196
0.524777
0.61432
0.711001
0.805086
0.905011
1.007856
1.094154
1.101292
1.076959
1.012722
0.944267
0.885545
0.809303
0.757719
0.700943
0.664282
0.652603
0.673042
0.72852
0.796002
0.882625
0.960164
1.035432
1.102265
1.072417
1.066253
1.051329
1.039001
1.009478
0.962435
0.867377
0.751879
0.623729
0.569224
0.644817
0.741497
0.820983
0.908255
0.989039
1.060738
1.063333
1.035757
1.007207
0.938427
0.885545
0.820334
0.77102
0.737604
0.686993
0.647736
0.62308
0.67726
0.752852
0.848884
0.973141
1.1107
1.219385
1.216465
1.164232
1.069173
0.943943
0.803464
0.670771
0.564358
0.471246
0.422905
0.428096
0.478383
0.570197
0.672393
0.816116
0.950107
1.067875
1.150281
1.105509
1.049383
0.954649
0.868999
0.77394
0.676935
0.578633
0.513097
0.488441
0.497525
0.553976
0.622431
0.699321
0.79438
0.896575
1.001367
1.037379
1.010451
0.964057
0.898847
0.837529
0.763234
0.729493
0.720085
0.710027
0.736306
0.781078
0.869648
0.943943
1.002016
1.050356
1.089288
1.114269
1.072093
1.002665
0.887167
0.774914
0.680504
0.587717
0.535483
0.501742
0.512448
0.590312
0.713596
0.850182
0.950107
1.03673
1.093505
1.140873
1.202515
1.189537
1.163583
1.091234
0.980603
0.860888
0.75707
0.655198
0.577335
0.534834
0.518937
0.55722
0.637355
0.721058
0.822281
0.92253
1.018886
1.062684
1.047112
1.000394
0.923828
0.839476
0.753501
0.699321
0.63703
0.573766
0.568575
0.585121
0.650332
0.713272
0.782051
0.85148
0.932587
0.969248
0.923828
0.877434
0.807357
0.729493
0.652279
0.566953
0.50596
0.462162
0.452753
0.492983
0.569548
0.669473
0.76583
0.863808
0.950756
1.031863
1.09383
1.065929
1.036081
0.959191
0.883274
0.796326
0.729818
0.67434
0.644817
0.643519
0.641572
0.692508
0.767452
0.843693
0.941023
1.050681
1.144117
1.161312
1.149957
1.128544
1.099021
1.078582
1.008504
0.922854
0.812548
0.724627
0.712298
0.708405
0.747013
0.78854
0.834609
0.890087
0.962111
0.989687
0.920259
0.865754
0.803464
0.732413
0.650981
0.548785
0.472219
0.416092
0.403115
0.442371
0.514071
0.599396
0.678233
0.785295
0.868999
0.948809
0.995852
0.949458
0.897873
0.825525
0.762261
0.697699
0.644492
0.590312
0.560789
0.563709
0.590637
0.651954
0.743119
0.832014
0.925125
1.014993
1.085395
1.076635
1.022131
0.946538
0.85667
0.778482
0.676935
0.605885
0.543269
0.493956
0.500769
0.538727
0.618862
0.704836
0.78854
0.884896
0.98839
1.051978
1.022779
0.987092
0.924152
0.841422
0.775238
0.687966
0.620809
0.574739
0.587717
0.65974
0.756097
0.890736
1.00526
1.082799
1.130491
1.203163
1.231713
1.133086
1.03381
0.940049
0.861537
0.777834
0.71976
0.660389
0.622431
0.614969
0.616915
0.658118
0.719111
0.780753
0.863159
0.9394
1.011424
1.031215
1.007207
0.95692
0.873865
0.795028
0.708081
0.680504
0.653252
0.616915
0.625351
0.658767
0.728195
0.772318
0.823578
0.896575
0.978332
1.008829
0.94232
0.851155
0.749932
0.660389
0.588365
0.515044
0.476437
0.443993
0.434585
0.462486
0.531266
0.618213
0.707756
0.811899
0.905335
1.000394
1.064307
1.039325
0.995527
0.920259
0.843044
0.764532
0.694779
0.628919
0.59745
0.599721
0.620809
0.684722
0.774265
0.860888
0.947187
1.01402
1.082799
1.083773
1.044841
0.993256
0.919286
0.866728
0.796002
0.721707
0.635732
0.604911
0.673691
0.745715
0.853751
0.950107
0.997798
1.032188
1.115567
1.1824
1.147686
1.08507
0.992607
0.881327
0.790811
0.732089
0.686344
0.638004
0.578308
0.539052
0.568575
0.639301
0.696077
0.792757
0.889762
0.976061
1.010451
0.941996
0.866728
0.793082
0.730142
0.681153
0.641572
0.596152
0.555598
0.562411
0.600369
0.686668
0.780753
0.854724
0.934534
0.994554
1.0536
1.03089
0.956271
0.860888
0.756097
0.672718
0.577984
0.521533
0.469299
0.431016
0.439127
0.486818
0.583823
0.70289
0.810601
0.915393
1.032188
1.113296
1.087666
1.040948
0.961786
0.877434
0.807032
0.732738
0.681477
0.638004
0.625675
0.663958
0.734035
0.797299
0.849533
0.933561
1.02797
1.114269
1.137628
1.088639
1.017588
0.929992
0.824227
0.731115
0.659416
0.622755
0.610751
0.649359
0.70289
0.780429
0.867052
0.945889
1.03089
1.10778
1.167476
1.140873
1.071769
0.981252
0.86835
0.778158
0.670771
0.606534
0.561113
0.543269
0.557869
0.568575
0.626973
0.708405
0.796651
0.881652
0.964057
1.009478
0.955946
0.894629
0.81709
0.740848
0.685695
0.635732
0.599721
0.563709
0.547487
0.566304
0.622431
0.693481
0.751555
0.841422
0.908255
0.97963
1.003314
0.967626
0.910202
0.834609
0.753826
0.679531
0.624702
0.577659
0.558842
0.590637
0.646763
0.744093
0.84564
0.923503
1.007207
1.08799
1.157743
1.148983
1.080204
0.984496
0.870945
0.772643
0.668825
0.605236
0.554625
0.524777
0.51991
0.53743
0.578633
0.645465
0.740524
0.855373
0.985145
1.086044
1.087341
1.07404
1.053925
1.019535
0.960489
0.888789
0.823578
0.728844
0.649034
0.628271
0.66558
0.735982
0.799246
0.902091
0.978008
1.058791
1.077933
1.027321
0.968599
0.887816
0.801517
0.728844
0.682775
0.627622
0.580579
0.566629
0.556896
0.593232
0.651305
0.704836
0.775887
0.856022
0.925125
0.91377
0.866728
0.804112
0.724302
0.670122
0.591934
0.550407
0.504987
0.485521
0.514071
0.570522
0.657469
0.757719
0.857644
0.939725
1.040623
1.11362
1.083448
1.04257
0.966004
0.878083
0.797948
0.721382
0.679206
0.653576
0.62308
0.627622
0.672393
0.724627
0.770047
0.855048
0.930641
1.028619
1.09675
1.096425
1.107132
1.110052
1.114594
1.098696
1.040623
0.927721
0.826174
0.795353
0.803464
0.852128
0.899495
0.945889
0.98547
1.007531
1.026673
1.002665
0.949133
0.868999
0.781402
0.691859
0.565006
0.488765
0.43426
0.397924
0.409928
0.462162
0.56598
0.669473
0.768749
0.879056
0.992283
1.086044
1.054574
0.998771
0.917988
0.837205
0.77978
0.72852
0.718138
0.740199
0.74247
0.726898
0.758043
0.801517
0.830391
0.882949
0.926099
0.994229
1.012073
0.952378
0.87419
0.776211
0.674664
0.592908
0.53159
0.493307
0.463459
0.484547
0.527697
0.61432
0.706134
0.801517
0.914419
1.026024
1.108754
1.09675
1.0536
0.967302
0.86543
0.780429
0.681477
0.627297
0.576686
0.541323
0.549434
0.594854
0.672718
0.763559
0.842071
0.920583
1.00818
1.064956
1.017913
0.960164
0.871594
0.808979
0.765505
0.723653
0.69121
0.678557
0.677584
0.729169
0.816441
0.875487
0.906308
0.988714
1.066253
1.161312
1.191484
1.143144
1.085395
1.01986
0.956271
0.895602
0.858941
0.820334
0.774914
0.754799
0.735657
0.736955
0.731764
0.754799
0.80833
0.876461
0.941347
0.937129
0.91085
0.863483
0.803464
0.743119
0.664607
0.628919
0.585446
0.536456
0.526075
0.554949
0.621782
0.705485
0.799246
0.89106
0.984821
1.050356
1.010451
0.960813
0.879705
0.801841
0.728195
0.647412
0.581877
0.535159
0.498498
0.496227
0.54035
0.61432
0.677584
0.769398
0.846937
0.944267
0.97671
0.947511
0.908904
0.86835
0.819361
0.767452
0.731764
0.703539
0.679855
0.702565
0.760314
0.85148
0.955622
1.029268
1.099021
1.171369
1.226198
1.192133
1.129193
1.010775
0.857644
0.738902
0.615942
0.559167
0.518937
0.510826
0.555922
0.676611
0.857319
1.031863
1.200892
1.339749
1.452976
1.490934
1.397498
1.276161
1.124651
0.955622
0.786269
0.626648
0.524777
0.468975
0.441722
0.455349
0.505311
0.565331
0.611725
0.687642
0.766478
0.85148
0.875487
0.855697
0.815792
0.752528
0.681153
0.618538
0.583175
0.552354
0.535483
0.556571
0.604587
0.692184
0.785295
0.866403
0.954324
1.031215
1.08799
1.054898
0.987741
0.899495
0.80541
0.723978
0.62308
0.56014
0.515368
0.489089
0.509204
0.56306
0.64287
0.750906
0.870621
0.976386
1.090261
1.169747
1.149308
1.124975
1.054249
0.978657
0.915717
0.857319
0.82812
0.820983
0.830716
0.82812
0.815468
0.801841
0.800219
0.844342
0.900469
0.977035
0.994554
0.966004
0.91085
0.849208
0.7827
0.706783
0.641897
0.591934
0.545216
0.545865
0.568575
0.650981
0.767127
0.876136
1.001367
1.118487
1.188888
1.147037
1.075013
0.977683
0.881003
0.806059
0.718787
0.66558
0.612698
0.574739
0.574739
0.622106
0.688615
0.77686
0.85959
0.937129
1.023428
1.095777
1.071444
1.04257
0.97379
0.875487
0.768425
0.652927
0.578633
0.543918
0.536781
0.542621
0.58577
0.641572
0.704188
0.787242
0.866079
0.977683
1.006558
0.966328
0.895927
0.829418
0.75415
0.6685
0.607183
0.564033
0.511475
0.5118
0.535159
0.601343
0.687966
0.773616
0.878732
0.980279
1.061062
1.065604
1.061711
1.022779
0.951404
0.880029
0.796651
0.703539
0.617889
0.571171
0.574415
0.636381
0.738577
0.87127
1.025699
1.182075
1.330665
1.438052
1.411449
1.340398
1.207381
1.070471
0.950431
0.829743
0.716192
0.615293
0.533537
0.461188
0.472868
0.53743
0.61432
0.71976
0.816765
0.913122
0.934858
0.898198
0.827472
0.746364
0.667202
0.600369
0.545865
0.502391
0.477085
0.516342
0.57409
0.672069
0.772318
0.885869
1.001691
1.09675
1.145739
1.101941
1.039325
0.939076
0.827147
0.722031
0.613671
0.535483
0.473192
0.445291
0.465406
0.550407
0.68018
0.816765
0.95984
1.08215
1.190186
1.251504
1.201866
1.137628
1.034783
0.920259
0.82001
0.733711
0.674989
0.643843
0.631839
0.630866
0.667851
0.722031
0.786269
0.879381
0.966977
1.046787
1.050032
1.003962
0.921557
0.855373
0.798922
0.730791
0.678882
0.623729
0.566953
0.588365
0.669149
0.821632
0.975737
1.095777
1.181751
1.242095
1.254748
1.17364
1.086368
0.97671
0.859266
0.746039
0.629568
0.534834
0.461188
0.436207
0.448211
0.504013
0.609778
0.726573
0.856346
0.984821
1.114269
1.213545
1.187915
1.1107
0.978657
0.84856
0.742146
0.644817
0.555598
0.519262
0.520559
0.552678
0.626
0.683748
0.718138
0.784322
0.860239
0.946862
0.976061
0.963084
0.919935
0.873865
0.83396
0.77686
0.729818
0.681802
0.641897
0.668825
0.711325
0.786918
0.871594
0.955622
1.026997
1.102265
1.145415
1.092532
1.02797
0.927397
0.814819
0.708405
0.606534
0.535808
0.475463
0.450158
0.467677
0.544243
0.662011
0.795677
0.941023
1.073715
1.194404
1.27908
1.248908
1.193106
1.08799
0.981901
0.882301
0.789189
0.695752
0.609778
0.534185
0.483899
0.512773
0.560789
0.624053
0.738902
0.862835
0.984821
1.024077
1.005909
0.954973
0.89106
0.822605
0.741497
0.67434
0.630866
0.610102
0.633137
0.677584
0.764532
0.841098
0.925125
1.021806
1.132762
1.21095
1.187915
1.144117
1.05944
0.952378
0.849208
0.738902
0.63703
0.56306
0.527048
0.54035
0.595827
0.698023
0.805086
0.916041
1.023753
1.11654
1.160987
1.1107
1.077284
1.003962
0.911499
0.797948
0.693806
0.596476
0.53451
0.511151
0.504987
0.569873
0.639626
0.695428
0.758043
0.841747
0.923179
0.95692
0.956595
0.924152
0.867377
0.806059
0.744093
0.702241
0.6685
0.626324
0.617889
0.615942
0.657145
0.71684
0.803788
0.888789
0.973466
1.029268
0.990336
0.95692
0.89106
0.809952
0.736631
0.667202
0.615942
0.562087
0.524452
0.529319
0.570522
0.661363
0.774265
0.921232
1.076311
1.237878
1.349158
1.328718
1.281351
1.184671
1.067875
0.957893
0.881327
0.833311
0.811574
0.775238
0.724951
0.727547
0.749932
0.773616
0.80833
0.847911
0.898847
0.892682
0.830716
0.760314
0.690561
0.639626
0.568575
0.531266
0.526399
0.54035
0.593556
0.657469
0.743119
0.820983
0.897873
0.965031
1.047761
1.116865
1.113945
1.101616
1.037054
0.936805
0.845315
0.766803
0.701268
0.64287
0.604911
0.609454
0.652279
0.711649
0.782051
0.879381
0.977359
1.075986
1.132113
1.10259
1.06236
0.957244
0.862186
0.780753
0.703214
0.621782
0.564682
0.558193
0.567602
0.62308
0.694455
0.770372
0.884247
1.012722
1.134059
1.166178
1.1253
1.065929
1.003638
0.97379
0.942645
0.921881
0.852128
0.740848
0.658443
0.620484
0.665256
0.75707
0.867052
0.977683
1.077284
1.149632
1.092532
1.02505
0.924152
0.814819
0.710676
0.619186
0.547487
0.488441
0.458268
0.486818
0.576686
0.701592
0.830716
0.95692
1.063333
1.152876
1.180129
1.114594
1.043867
0.933236
0.825201
0.725276
0.64287
0.583823
0.557869
0.576362
0.622431
0.724951
0.826823
0.924477
1.052303
1.169098
1.282325
1.282974
1.20219
1.090586
0.981901
0.907282
0.810601
0.734035
0.650007
0.575388
0.553976
0.571495
0.63703
0.709054
0.764856
0.842071
0.944591
1.02505
0.996825
0.947187
0.864781
0.787242
0.719436
0.647412
0.591285
0.543918
0.512448
0.528021
0.590961
0.681477
0.757394
0.861212
0.956595
1.063333
1.125624
1.083448
1.01694
0.928694
0.860564
0.792757
0.730142
0.654225
0.597774
0.57409
0.58869
0.680828
0.792757
0.909553
1.062684
1.197972
1.294978
1.290436
1.218412
1.114594
1.014669
0.950107
0.85667
0.789189
0.711974
0.638977
0.619511
0.628919
0.688615
0.748959
0.810926
0.875163
0.957893
1.038028
1.021482
0.973141
0.894629
0.825525
0.768101
0.704188
0.647412
0.614644
0.608805
0.643194
0.702565
0.776211
0.823578
0.907282
0.998447
1.091883
1.132762
1.091883
1.041272
0.944916
0.846289
0.754799
0.69121
0.630217
0.573442
0.558518
0.569224
0.642546
0.74539
0.851804
0.957893
1.062684
1.146063
1.144441
1.085395
0.989687
0.883598
0.796326
0.684397
0.60264
0.513097
0.460539
0.468326
0.50596
0.595179
0.711649
0.838827
0.972817
1.107456
1.199595
1.183049
1.160014
1.096101
1.023428
0.961786
0.889438
0.816116
0.743444
0.673691
0.633461
0.657469
0.704512
0.725276
0.798922
0.878407
0.987092
1.062036
1.071769
1.060413
1.009153
0.951404
0.892033
0.832338
0.758043
0.716192
0.726249
0.768425
0.853102
0.929343
0.987092
1.039001
1.095777
1.144441
1.115567
1.033486
0.951729
0.858293
0.778482
0.683424
0.622431
0.579606
0.549758
0.581877
0.632813
0.726898
0.827147
0.924477
1.0111
1.097723
1.145415
1.097399
1.013695
0.88814
0.762261
0.638328
0.553002
0.499796
0.465081
0.436856
0.446264
0.498822
0.59161
0.670122
0.783998
0.890087
0.995203
1.040623
1.009153
0.958542
0.892033
0.829418
0.76291
0.7256
0.683748
0.647736
0.647412
0.655847
0.712947
0.778158
0.841422
0.927721
1.014993
1.081177
1.067875
1.008829
0.931614
0.86251
0.828445
0.767776
0.738902
0.721707
0.723653
0.779131
0.876461
1.01986
1.152228
1.271618
1.354024
1.408529
1.428643
1.348509
1.25053
1.103887
0.920259
0.765181
0.622106
0.500445
0.425501
0.39176
0.404088
0.461188
0.542945
0.630217
0.762585
0.879705
1.013695
1.072417
1.065929
1.031539
0.968924
0.915393
0.858941
0.814494
0.763883
0.727547
0.736955
0.754799
0.811574
0.876461
0.92253
0.961462
1.001691
1.043867
1.020508
0.959191
0.872243
0.77102
0.686993
0.578633
0.525101
0.470597
0.444318
0.466055
0.511475
0.595179
0.682775
0.766803
0.843044
0.947187
1.061062
1.094803
1.100967
1.078582
1.030241
0.973466
0.905011
0.808655
0.740848
0.696401
0.680504
0.71684
0.775887
0.819361
0.918961
0.989687
1.060413
1.063982
1.022131
0.961786
0.865106
0.778158
0.695428
0.647412
0.613671
0.600045
0.647412
0.724302
0.835907
0.936156
1.022131
1.129193
1.247286
1.333909
1.328394
1.281027
1.215167
1.11946
1.002016
0.832987
0.724951
0.618213
0.533861
0.498498
0.500445
0.549434
0.624053
0.711325
0.789513
0.8969
0.990336
0.981252
0.954973
0.909228
0.858617
0.815143
0.769398
0.71684
0.6831
0.656821
0.664931
0.71976
0.798597
0.856346
0.948485
1.023104
1.11362
1.127246
1.076311
1.006882
0.909553
0.826823
0.733711
0.655847
0.567602
0.490387
0.463135
0.479032
0.565655
0.664931
0.77102
0.909553
1.051654
1.144117
1.155472
1.114269
1.034459
0.927072
0.83396
0.720085
0.673367
0.659092
0.700943
0.769398
0.842395
0.883598
0.898198
0.939076
1.000718
1.092208
1.162934
1.11362
1.03381
0.911499
0.79438
0.706783
0.629568
0.566629
0.555922
0.590637
0.688615
0.805086
0.894629
0.936805
0.993581
1.034459
1.088963
1.091234
1.039001
0.983848
0.922206
0.862835
0.77102
0.700619
0.660065
0.623729
0.622755
0.645141
0.718787
0.795353
0.864457
0.948809
1.039974
1.093505
1.058142
0.980928
0.879381
0.783024
0.715867
0.618213
0.56306
0.506609
0.478059
0.503689
0.56014
0.65163
0.74831
0.843693
0.936805
1.024402
1.094803
1.077933
1.033161
0.958866
0.863159
0.778807
0.699321
0.630866
0.586743
0.582526
0.60264
0.682451
0.784647
0.882301
1.008504
1.11362
1.219061
1.242744
1.216141
1.176236
1.117838
1.064956
1.030241
0.994554
0.944267
0.841747
0.753177
0.73436
0.800219
0.880678
0.950431
1.006233
1.040623
1.072417
1.037703
0.987741
0.922854
0.832014
0.748959
0.633137
0.562087
0.496551
0.489089
0.53159
0.622755
0.730467
0.815143
0.890736
0.954324
1.031863
1.099994
1.066902
1.024402
0.948809
0.85667
0.75123
0.64579
0.575713
0.538403
0.523804
0.538727
0.596801
0.687966
0.75707
0.858293
0.933561
1.013695
1.008829
0.942645
0.865754
0.796651
0.730467
0.664607
0.628919
0.603289
0.585121
0.601343
0.64287
0.721382
0.793406
0.858293
0.932912
1.01402
1.075013
1.065929
1.034135
0.969573
0.898847
0.841747
0.758692
0.706134
0.647088
0.611725
0.609129
0.644168
0.696401
0.750581
0.826823
0.90274
1.003638
1.078257
1.051329
1.013371
0.944591
0.870621
0.828445
0.795028
0.776211
0.769074
0.779131
0.823578
0.911175
1.021806
1.069498
1.097399
1.103238
1.155472
1.160663
1.118162
1.041596
0.938752
0.829743
0.711001
0.643194
0.597125
0.578308
0.598747
0.643843
0.716516
0.795028
0.871919
0.957893
1.03965
1.089288
1.063982
1.051978
1.040948
0.998123
0.953675
0.875163
0.831689
0.78562
0.778482
0.793082
0.813521
0.839151
0.865754
0.900469
0.937778
0.990661
1.008829
0.932263
0.846613
0.746364
0.651954
0.574739
0.498174
0.44594
0.446589
0.474166
0.514071
0.580579
0.665256
0.745066
0.856022
0.953351
1.046138
1.050356
1.00234
0.930641
0.85148
0.774589
0.689264
0.638328
0.603938
0.577984
0.588365
0.621458
0.694779
0.775563
0.876461
0.985145
1.069822
1.11362
1.079231
1.01694
0.930641
0.84856
0.787891
0.724302
0.693806
0.668825
0.682126
0.732413
0.826823
0.943943
1.059765
1.15385
1.21095
1.271294
1.336829
1.312497
1.269023
1.172342
1.031863
0.884247
0.764532
0.663958
0.596801
0.569548
0.56306
0.592583
0.633137
0.685046
0.784647
0.897224
1.010127
1.042245
1.047761
1.035108
0.999096
0.943618
0.862186
0.785944
0.726573
0.674015
0.669473
0.684397
0.736631
0.790162
0.832338
0.885869
0.961137
1.017588
0.983523
0.931939
0.84856
0.771994
0.715218
0.644817
0.606209
0.571495
0.56598
0.584472
0.651954
0.727871
0.794055
0.879705
0.953675
1.032837
1.10259
1.08215
1.03673
0.953027
0.865754
0.819685
0.778482
0.729493
0.685371
0.655523
0.661687
0.718787
0.800868
0.89398
1.032837
1.147361
1.234958
1.229767
1.176884
1.093181
0.986443
0.879056
0.752528
0.651954
0.596152
0.564358
0.591934
0.660714
0.754474
0.815143
0.844666
0.894629
0.977683
1.039325
1.027646
1.016291
0.971519
0.923828
0.88522
0.825849
0.795677
0.764207
0.743444
0.738577
0.774914
0.840124
0.911824
0.991958
1.057494
1.123353
1.149957
1.09091
1.026024
0.938752
0.838827
0.74831
0.657469
0.578957
0.518613
0.490387
0.485845
0.539376
0.59745
0.658767
0.763559
0.873865
0.986443
1.009478
0.990661
0.932587
0.873865
0.812548
0.744742
0.682126
0.629244
0.576362
0.582526
0.623404
0.699646
0.773616
0.850182
0.937129
1.028295
1.09091
1.059116
1.018237
0.943943
0.874514
0.821307
0.764532
0.735657
0.707756
0.73144
0.818712
0.940698
1.072742
1.193106
1.293031
1.329692
1.346887
1.330989
1.25345
1.1678
1.043543
0.929019
0.863159
0.800868
0.717489
0.625026
0.545541
0.472868
0.442047
0.48617
0.569873
0.686993
0.800544
0.920908
0.941347
0.915717
0.857968
0.789837
0.738253
0.679531
0.632488
0.589014
0.552354
0.562411
0.589014
0.652279
0.725276
0.800868
0.886518
0.989039
1.062684
1.032837
1.001042
0.932263
0.854075
0.780753
0.703539
0.646439
0.596801
0.575064
0.579606
0.626324
0.712947
0.809628
0.906308
0.989039
1.069498
1.108754
1.047761
0.977035
0.87711
0.771345
0.679206
0.593556
0.521857
0.464757
0.468001
0.502716
0.583499
0.679531
0.772643
0.886843
1.001691
1.111674
1.140224
1.119136
1.049058
0.97671
0.929668
0.876785
0.841747
0.801517
0.748635
0.736631
0.754799
0.83396
0.907606
0.97379
1.063333
1.160663
1.233336
1.199919
1.162285
1.068849
0.955622
0.860239
0.791784
0.754799
0.73436
0.780429
0.870621
0.939725
0.941023
0.922206
0.928694
0.965355
1.022131
1.055547
1.002665
0.933236
0.852777
0.771345
0.699321
0.639626
0.602965
0.596801
0.633461
0.670771
0.749284
0.826498
0.883923
0.944591
0.985794
1.021157
0.978657
0.897549
0.802166
0.721382
0.652603
0.570846
0.521857
0.48325
0.465081
0.505311
0.557869
0.646114
0.73728
0.827472
0.915068
1.003314
1.073715
1.039974
1.003962
0.94816
0.892682
0.838827
0.779456
0.74539
0.712623
0.705161
0.711649
0.747337
0.801841
0.853102
0.908904
0.946862
0.99131
1.009802
0.961462
0.911824
0.847586
0.780105
0.735657
0.702241
0.679531
0.677584
0.747013
0.852453
1.012073
1.157743
1.257992
1.29368
1.302115
1.324176
1.295626
1.226847
1.096101
0.953675
0.834933
0.71684
0.645465
0.583499
0.534185
0.558193
0.608805
0.67726
0.732413
0.778158
0.831689
0.900793
0.963084
0.915068
0.861212
0.777509
0.710352
0.66266
0.607507
0.572793
0.560789
0.594854
0.66266
0.761936
0.863159
0.933885
0.985145
1.017913
1.080528
1.113296
1.065604
0.998123
0.909228
0.820659
0.744742
0.680828
0.629244
0.587717
0.590637
0.599072
0.66266
0.745066
0.820659
0.908904
0.994554
1.066578
1.056845
1.006558
0.941671
0.882625
0.844018
0.796651
0.774914
0.75123
0.722031
0.741497
0.764207
0.820659
0.87419
0.939725
1.001367
1.075337
1.126273
1.080204
1.02797
0.942969
0.852777
0.772318
0.694455
0.630542
0.585121
0.569224
0.59745
0.695428
0.81709
0.932912
1.084097
1.226522
1.346238
1.394254
1.334883
1.256046
1.15677
1.041596
0.918637
0.818712
0.709378
0.585446
0.520884
0.502716
0.538727
0.583175
0.63995
0.723653
0.83104
0.915068
0.919286
0.892682
0.83688
0.77102
0.729493
0.676611
0.65974
0.649359
0.654874
0.711974
0.780105
0.880678
0.96276
1.00818
1.04841
1.091559
1.127571
1.062684
0.989363
0.878732
0.768749
0.66266
0.572144
0.506609
0.470921
0.472219
0.495578
0.567602
0.663634
0.751879
0.862835
0.958542
1.060738
1.112647
1.071769
1.022455
0.947511
0.858293
0.781727
0.713921
0.654874
0.612698
0.631515
0.659092
0.709703
0.773616
0.844991
0.926099
1.013695
1.076311
1.051329
0.999096
0.930641
0.855373
0.803788
0.733386
0.696401
0.664282
0.641248
0.669798
0.733386
0.830067
0.932587
1.043219
1.171694
1.333585
1.45622
1.424101
1.342345
1.175911
1.014993
0.921557
0.852777
0.789837
0.733386
0.674015
0.636057
0.655523
0.719436
0.764856
0.837205
0.906308
0.988714
1.03965
1.024077
0.998771
0.9394
0.884572
0.841422
0.808655
0.745066
0.700294
0.689588
0.681802
0.721058
0.79146
0.880029
0.971519
1.049383
1.079879
1.011749
0.900793
0.786593
0.685695
0.614969
0.53743
0.497849
0.470921
0.472543
0.527048
0.605885
0.726898
0.836556
0.930641
1.010451
1.088639
1.144441
1.101292
1.039974
0.936481
0.83104
0.737604
0.650007
0.5689
0.52867
0.516991
0.55138
0.630866
0.726249
0.790811
0.868674
0.941671
1.050032
1.136006
1.148659
1.144766
1.104861
1.054898
1.009478
0.994554
0.961137
0.912797
0.876136
0.841747
0.850506
0.845315
0.861212
0.909228
0.982874
1.01986
0.971519
0.911499
0.864457
0.816765
0.787566
0.747986
0.744742
0.722031
0.680828
0.693157
0.744417
0.82293
0.881003
0.933885
0.978657
1.038352
1.08215
1.036406
0.996825
0.94816
0.918312
0.893656
0.857968
0.822605
0.810277
0.788864
0.792433
0.80833
0.837853
0.847911
0.887816
0.911499
0.942969
0.931614
0.866079
0.81125
0.74247
0.678233
0.626973
0.594854
0.564358
0.540025
0.557544
0.593232
0.684722
0.772967
0.839476
0.913446
1.015966
1.096425
1.109727
1.097399
1.042245
0.981577
0.923179
0.845315
0.779131
0.731115
0.661038
0.628595
0.650656
0.73144
0.814494
0.901118
0.987416
1.091883
1.172991
1.128544
1.074364
0.987092
0.901118
0.818063
0.742795
0.691535
0.670447
0.658443
0.655198
0.679206
0.745066
0.818387
0.906308
0.97379
1.050032
1.076311
1.032512
0.965679
0.880678
0.795353
0.700943
0.636706
0.577984
0.523804
0.520884
0.5543
0.63703
0.733386
0.824552
0.928694
1.040299
1.115242
1.094154
1.04257
0.963408
0.870621
0.783673
0.675638
0.600369
0.532239
0.488116
0.488116
0.516017
0.589988
0.660065
0.755448
0.842395
0.936805
1.012073
0.997149
0.9965
0.980279
0.95692
0.947511
0.923179
0.904037
0.907606
0.900469
0.91377
0.952053
0.982874
0.986443
1.022131
1.069173
1.158067
1.1678
1.087341
0.945889
0.778482
0.649683
0.547812
0.508231
0.47741
0.454051
0.493307
0.568251
0.703214
0.82812
0.935832
1.05944
1.16488
1.219385
1.18824
1.124002
1.022455
0.91669
0.846937
0.782376
0.756745
0.711325
0.662336
0.639301
0.64579
0.686993
0.733062
0.795353
0.84856
0.916366
0.95984
0.907931
0.853751
0.773616
0.693157
0.626324
0.5543
0.49136
0.456322
0.453402
0.487792
0.555922
0.657145
0.742795
0.860239
0.953675
1.050356
1.081177
1.062684
1.033161
0.979306
0.926423
0.862186
0.814494
0.761612
0.730142
0.747661
0.77978
0.841747
0.904686
0.942969
0.959191
0.993905
1.024402
0.981252
0.914744
0.826823
0.740199
0.681802
0.613022
0.589663
0.574739
0.593556
0.653252
0.732738
0.818387
0.892358
0.992607
1.070146
1.147686
1.183049
1.109727
1.038677
0.968924
0.886843
0.804761
0.733386
0.663309
0.636706
0.637679
0.66558
0.732738
0.781078
0.78562
0.846289
0.925125
1.013371
1.02797
0.980928
0.921557
0.86543
0.82293
0.783673
0.76291
0.738577
0.7256
0.739551
0.769074
0.832338
0.896251
0.950431
0.989039
1.043543
1.058467
0.991958
0.902415
0.801517
0.694455
0.607831
0.512448
0.451131
0.400844
0.395329
0.433287
0.493631
0.597774
0.694455
0.807032
0.900144
0.992932
1.058791
1.023428
0.967626
0.893656
0.814494
0.738253
0.684073
0.646114
0.647736
0.68018
0.732089
0.80249
0.877434
0.932587
0.986443
1.030566
1.088963
1.085395
1.032512
0.97379
0.897549
0.806708
0.69413
0.631515
0.638004
0.68018
0.766154
0.84564
0.938103
0.997149
1.050032
1.095777
1.158392
1.172342
1.096101
0.986443
0.856346
0.719436
0.607183
0.498498
0.435558
0.384947
0.364183
0.390138
0.457944
0.550083
0.646114
0.778482
0.905335
1.044192
1.153201
1.137953
1.079231
0.996825
0.928045
0.859915
0.777834
0.6831
0.607183
0.564682
0.557869
0.592259
0.66266
0.726249
0.820659
0.915068
1.012722
1.038028
0.998771
0.926748
0.848884
0.76583
0.672069
0.60556
0.535159
0.479681
0.473841
0.50012
0.571495
0.658118
0.747986
0.862835
0.983848
1.066578
1.051654
1.01694
0.953675
0.871594
0.795677
0.700294
0.629893
0.567277
0.550731
0.588365
0.681802
0.797948
0.921232
1.079879
1.212572
1.337803
1.427021
1.341696
1.213221
1.081502
0.939725
0.7827
0.623729
0.492334
0.447562
0.465081
0.504013
0.573442
0.669798
0.779131
0.936156
1.070795
1.19635
1.233011
1.196675
1.093505
0.917664
0.732089
0.592583
0.525101
0.466055
0.41155
0.409604
0.4401
0.515044
0.592583
0.664607
0.746688
0.848235
0.914744
0.885869
0.842071
0.77394
0.701917
0.638977
0.577335
0.539052
0.498174
0.493956
0.526075
0.596152
0.694455
0.783349
0.884572
0.965679
1.060413
1.121407
1.083124
1.041921
0.979306
0.901442
0.822281
0.740848
0.657145
0.600369
0.558842
0.545216
0.577659
0.638328
0.689588
0.767776
0.844342
0.924801
0.929668
0.898847
0.841422
0.771994
0.701592
0.625026
0.590961
0.561113
0.553002
0.588041
0.634759
0.716192
0.818063
0.929343
1.056196
1.169423
1.235931
1.205759
1.156445
1.094803
1.015966
0.948809
0.867701
0.791135
0.67434
0.589339
0.561113
0.586094
0.629568
0.664282
0.720734
0.760963
0.833311
0.906957
0.884896
0.855697
0.82001
0.778482
0.711649
0.645141
0.585446
0.54035
0.511475
0.513422
0.564682
0.650007
0.738902
0.843693
0.936481
1.028295
1.031863
0.980928
0.906957
0.81709
0.728195
0.640599
0.598098
0.561762
0.532563
0.553002
0.603289
0.68829
0.787242
0.85959
0.916041
0.977683
1.004611
0.954973
0.901442
0.815792
0.730467
0.65163
0.577984
0.53159
0.489738
0.486494
0.496551
0.559167
0.642221
0.723653
0.821307
0.893331
0.973141
1.03089
1.004287
0.993581
0.979954
0.964706
0.939076
0.893656
0.854075
0.828769
0.828769
0.829094
0.867377
0.884896
0.892682
0.950107
1.002665
1.040623
0.969573
0.862835
0.760963
0.672718
0.609454
0.559816
0.535159
0.502067
0.435234
0.403764
0.418039
0.49136
0.577659
0.666878
0.767452
0.868026
0.946538
0.917988
0.888465
0.834285
0.770047
0.72268
0.667527
0.617889
0.553651
0.531914
0.54035
0.578957
0.652279
0.744742
0.849857
0.941347
1.02505
1.057818
0.993905
0.907282
0.807357
0.706459
0.615293
0.526075
0.459891
0.43426
0.457944
0.49136
0.564358
0.658118
0.736306
0.826823
0.911824
0.998123
1.00818
0.965031
0.887816
0.783673
0.670771
0.557544
0.490712
0.436207
0.391436
0.38884
0.436207
0.516666
0.612049
0.717814
0.816765
0.916041
0.993905
0.954973
0.898847
0.816441
0.722031
0.648385
0.592908
0.565655
0.539701
0.561438
0.619835
0.697374
0.764207
0.814494
0.868999
0.915717
0.977035
1.009802
0.973466
0.928045
0.85667
0.765181
0.669798
0.580255
0.504013
0.445616
0.433612
0.423554
0.446913
0.498822
0.551056
0.636381
0.730791
0.852453
0.875812
0.850506
0.810601
0.769398
0.726898
0.662011
0.601343
0.532563
0.47741
0.464433
0.487792
0.542296
0.607183
0.654874
0.713272
0.783349
0.857319
0.827147
0.78562
0.723653
0.669149
0.620484
0.571495
0.545216
0.528346
0.518613
0.543918
0.608805
0.687317
0.745715
0.822605
0.882301
0.954
0.990661
0.942969
0.880029
0.801841
0.71976
0.654225
0.596801
0.55138
0.523155
0.539701
0.573442
0.667202
0.795353
0.935183
1.091883
1.218412
1.338127
1.366028
1.345589
1.295951
1.228145
1.162934
1.085719
1.013371
0.934534
0.851155
0.76291
0.736955
0.772318
0.864132
0.974439
1.07404
1.163907
1.237553
1.195701
1.147037
1.069498
1.003638
0.934858
0.803139
0.678557
0.5689
0.493307
0.466704
0.50304
0.554949
0.625351
0.717165
0.777834
0.84564
0.849208
0.770372
0.679531
0.571495
0.484872
0.426799
0.39176
0.368076
0.350557
0.367103
0.385596
0.450158
0.523804
0.599721
0.689264
0.788864
0.879056
0.88814
0.862186
0.803788
0.729493
0.663309
0.586094
0.531266
0.474814
0.432638
0.442696
0.473192
0.532239
0.598098
0.646439
0.69121
0.737604
0.775238
0.711974
0.660714
0.585121
0.501093
0.443993
0.39468
0.362886
0.348611
0.354126
0.388516
0.453402
0.54035
0.644168
0.780753
0.890411
0.992607
1.010127
0.92545
0.826498
0.675962
0.505311
0.383649
0.299621
0.237655
0.181204
0.184448
0.250632
0.37489
0.510826
0.624702
0.744742
0.85959
0.942645
0.960813
0.96795
0.914095
0.810926
0.707756
0.57701
0.50012
0.446589
0.417066
0.424203
0.437505
0.469299
0.520235
0.604587
0.695752
0.772643
0.837853
0.790162
0.726249
0.645141
0.587392
0.535808
0.483574
0.44302
0.428745
0.437505
0.474814
0.553651
0.63995
0.722356
0.825849
0.920583
0.99942
1.013371
0.945889
0.865106
0.767776
0.666229
0.57993
0.514071
0.459566
0.418039
0.433287
0.466055
0.567926
0.681802
0.809952
0.930965
1.037054
1.117838
1.112647
1.076635
1.001367
0.902415
0.810277
0.700294
0.624702
0.583823
0.573117
0.635408
0.730142
0.853426
0.975412
1.08507
1.17656
1.261237
1.34202
1.31931
1.286218
1.205434
1.122055
1.034459
0.972492
0.937778
0.935183
0.93421
0.934858
0.959515
0.990336
1.045165
1.146063
1.249882
1.35078
1.388414
1.324825
1.256046
1.187591
1.134384
1.093505
1.065929
1.034135
1.000394
1.028944
1.048734
1.10259
1.150281
1.168449
1.187915
1.23658
1.277458
1.240149
1.172342
1.086368
1.00818
0.956271
0.91085
0.916366
0.932912
0.950756
1.018562
1.105509
1.201866
1.286542
1.354997
1.423453
1.491908
1.535057
1.469846
1.406582
1.305359
1.223603
1.155472
1.102265
1.060738
1.045814
1.034783
1.053276
1.1107
1.186617
1.249882
1.327745
1.378357
1.43351
1.43643
1.372841
1.322554
1.275187
1.219061
1.155472
1.110376
1.06236
1.020184
1.026673
1.025699
1.059116
1.110376
1.173965
1.247935
1.337154
1.442594
1.490934
1.501641
1.486717
1.431239
1.358891
1.283622
1.223927
1.151903
1.064956
1.012722
0.993581
1.023753
1.055547
1.080853
1.09675
1.116865
1.117838
1.017913
0.929343
0.842395
0.792757
0.74539
0.716192
0.700943
0.709703
0.732413
0.77978
0.860564
0.956271
1.055871
1.134708
1.193106
1.259939
1.275512
1.218087
1.140224
1.052952
0.970221
0.882949
0.790811
0.709378
0.65163
0.650981
0.676286
0.750257
0.834285
0.91377
1.017588
1.123029
1.200244
1.194404
1.151903
1.079555
0.990985
0.917339
0.837529
0.787242
0.739226
0.703539
0.708081
0.741822
0.824552
0.924477
1.029268
1.140548
1.266428
1.364406
1.335207
1.307306
1.244042
1.18532
1.119136
1.026997
0.915393
0.834609
0.783349
0.786269
0.844342
0.897224
0.934858
0.994878
1.068524
1.188888
1.266752
1.264157
1.23658
1.175587
1.174938
1.213221
1.279729
1.321581
1.291084
1.238202
1.158067
1.125624
1.10259
1.044841
0.983848
0.954324
0.938103
0.869972
0.795353
0.720734
0.640599
0.58869
0.544243
0.539701
0.570197
0.63411
0.731115
0.8398
0.978008
1.104536
1.205434
1.274538
1.307306
1.272916
1.134059
1.019211
0.883274
0.751879
0.616267
0.505311
0.411226
0.364508
0.358668
0.38008
0.448535
0.52867
0.609129
0.725276
0.83104
0.92837
0.960489
0.927397
0.882949
0.81709
0.758368
0.692508
0.650656
0.62308
0.603289
0.622106
0.667202
0.754799
0.848235
0.928045
1.015317
1.105185
1.160663
1.137304
1.087017
1.021806
0.951729
0.908255
0.856346
0.821632
0.797624
0.7827
0.799246
0.861537
0.958542
1.022455
1.090261
1.136655
1.182724
1.209976
1.137953
1.062684
0.969248
0.898198
0.850506
0.830391
0.805735
0.777509
0.73728
0.735982
0.778482
0.842395
0.904037
0.987416
1.050032
1.118811
1.149957
1.120433
1.047112
0.914095
0.807032
0.743119
0.732413
0.71684
0.67726
0.669798
0.661363
0.701592
0.772967
0.839476
0.917339
1.014993
1.109078
1.156445
1.206732
1.229442
1.195701
1.128544
1.049383
0.950756
0.825849
0.710352
0.638004
0.614644
0.644492
0.670447
0.737604
0.806708
0.877434
0.937129
0.867377
0.791135
0.691535
0.614644
0.534185
0.455673
0.379107
0.344069
0.314221
0.320385
0.364832
0.430367
0.498822
0.590312
0.678233
0.76583
0.7827
0.746039
0.68829
0.605885
0.525426
0.439776
0.382351
0.339202
0.306434
0.320709
0.38008
0.499796
0.641572
0.781727
0.914095
1.031863
1.101941
1.071444
1.013695
0.935832
0.843369
0.785295
0.726249
0.683424
0.640923
0.626
0.652279
0.670771
0.660389
0.613347
0.607507
0.650332
0.709703
0.759016
0.709703
0.645141
0.589014
0.56598
0.543594
0.539052
0.504013
0.508231
0.576037
0.655198
0.71684
0.744093
0.749932
0.792109
0.826823
0.8969
0.909553
0.873541
0.840124
0.774914
0.724302
0.663309
0.615293
0.561762
0.5118
0.497525
0.492334
0.531914
0.597774
0.692184
0.796002
0.912473
0.978981
0.95108
0.891385
0.821307
0.73436
0.64871
0.552354
0.47157
0.393058
0.338553
0.328171
0.367428
0.428421
0.492658
0.59161
0.691859
0.795353
0.867701
0.846289
0.827147
0.772967
0.720085
0.667202
0.615942
0.575388
0.567926
0.596152
0.657145
0.736306
0.820334
0.879705
0.95984
1.045165
1.108105
1.083773
1.007531
0.923828
0.836556
0.778807
0.723329
0.669473
0.570197
0.485521
0.494605
0.573766
0.707432
0.818387
0.921557
1.007531
1.098372
1.129842
1.059765
0.972492
0.891709
0.80541
0.736955
0.682775
0.657469
0.618538
0.580579
0.588365
0.661038
0.75415
0.823903
0.89982
0.980279
1.055871
1.064956
0.960164
0.872243
0.791784
0.727547
0.672718
0.623729
0.561438
0.522506
0.506933
0.517315
0.576037
0.662011
0.74539
0.832338
0.91377
0.984172
0.986767
0.938427
0.872243
0.794704
0.730791
0.649359
0.605236
0.566304
0.541647
0.561113
0.609129
0.697374
0.783673
0.884247
0.977683
1.082475
1.148334
1.116865
1.056196
0.984496
0.902415
0.843693
0.79957
0.774589
0.77686
0.804437
0.869972
0.965679
1.079555
1.17948
1.261237
1.312821
1.381925
1.449732
1.416639
1.343642
1.192782
1.023104
0.876136
0.757394
0.650656
0.597125
0.59745
0.621782
0.692184
0.797299
0.914419
1.046138
1.155796
1.224251
1.189537
1.111349
1.02797
0.946214
0.880354
0.804761
0.751879
0.702241
0.67434
0.70289
0.762261
0.855048
0.929019
0.998771
1.077284
1.1824
1.271618
1.260263
1.200892
1.098372
0.983199
0.871594
0.762585
0.674664
0.600045
0.548785
0.536781
0.573766
0.638004
0.713596
0.834285
0.939725
1.042245
1.099021
1.052627
0.998447
0.924477
0.859266
0.797948
0.740524
0.686019
0.660389
0.668825
0.701268
0.77102
0.848235
0.905011
0.979306
1.042245
1.102914
1.096425
1.040299
0.966653
0.871594
0.788864
0.707756
0.678557
0.663634
0.651305
0.703214
0.792433
0.921232
1.052303
1.195053
1.350455
1.508129
1.61065
1.595726
1.498396
1.337803
1.195377
1.084097
0.963084
0.860239
0.743444
0.671744
0.649359
0.663634
0.711001
0.773616
0.887491
0.987416
1.08799
1.152552
1.121082
1.056196
0.958218
0.869972
0.78854
0.727871
0.680828
0.664607
0.680504
0.740524
0.837529
0.923828
0.983523
1.052303
1.096425
1.140548
1.130166
1.085719
1.008504
0.91085
0.829094
0.746364
0.703214
0.676935
0.67726
0.737928
0.821956
0.932263
1.041272
1.137304
1.230416
1.318337
1.363433
1.28492
1.178507
1.04549
0.89982
0.764207
0.645141
0.563709
0.503689
0.4972
0.525426
0.590312
0.685695
0.786593
0.915717
1.047112
1.174938
1.243069
1.219385
1.150281
1.044516
0.978981
0.926748
0.881327
0.827472
0.773616
0.739226
0.744417
0.795028
0.874514
0.968275
1.085395
1.163258
1.233011
1.234633
1.177533
1.084746
0.998771
0.9394
0.863808
0.841747
0.820659
0.812548
0.83688
0.881003
0.949133
1.034783
1.124975
1.223603
1.332936
1.410151
1.374463
1.287516
1.158067
1.000069
0.849208
0.71684
0.628595
0.552029
0.512773
0.503689
0.541647
0.623404
0.703863
0.807357
0.884572
0.963733
0.988714
0.935183
0.866728
0.781727
0.710027
0.652927
0.61432
0.579281
0.574739
0.608805
0.662011
0.755448
0.855048
0.947187
1.046463
1.127571
1.19635
1.176236
1.098048
0.992932
0.884247
0.787566
0.674989
0.609778
0.547163
0.503689
0.511475
0.56306
0.658443
0.772318
0.886518
1.003638
1.129842
1.221656
1.210625
1.188564
1.136655
1.070471
0.980603
0.878732
0.832014
0.804112
0.796651
0.783349
0.769398
0.771669
0.773616
0.810277
0.86251
0.95108
1.004287
0.9965
0.960813
0.903713
0.841422
0.796651
0.765181
0.714569
0.670771
0.667202
0.669798
0.723329
0.778158
0.826498
0.897549
0.989687
1.094803
1.125624
1.121407
1.079231
1.033161
0.980603
0.872568
0.76291
0.653901
0.58869
0.573766
0.567277
0.586743
0.627946
0.678233
0.753501
0.852777
0.952378
0.949782
0.943943
0.915717
0.857644
0.810601
0.756097
0.715218
0.684397
0.669149
0.660389
0.688615
0.732089
0.770696
0.854399
0.926423
1.005909
1.018562
0.950107
0.867377
0.786918
0.732413
0.674664
0.619835
0.56306
0.540674
0.606534
0.700294
0.819685
0.935507
1.028944
1.134708
1.224576
1.269023
1.217438
1.118487
0.980279
0.837205
0.724627
0.588365
0.498174
0.410253
0.374241
0.397924
0.446589
0.53451
0.647412
0.759016
0.87127
0.964382
1.042894
1.040948
1.046463
1.017913
0.95984
0.894953
0.822605
0.757719
0.739551
0.766478
0.802166
0.873541
0.957569
1.018886
1.102914
1.163907
1.240473
1.240473
1.165205
1.055871
0.922206
0.796326
0.712623
0.669473
0.641897
0.6114
0.602316
0.593232
0.638652
0.705161
0.750257
0.813197
0.863483
0.904037
0.865106
0.792433
0.698348
0.613022
0.550083
0.47157
0.428096
0.386893
0.380405
0.411875
0.479032
0.575064
0.68829
0.796002
0.898847
0.986767
1.056845
1.006882
0.951404
0.892682
0.847586
0.824552
0.780753
0.720734
0.686668
0.695428
0.739551
0.796651
0.846613
0.884572
0.946538
0.980603
1.016291
1.005909
0.95108
0.893656
0.838502
0.794055
0.724302
0.65455
0.609129
0.598423
0.648385
0.700943
0.779456
0.868026
0.921557
0.989363
1.079879
1.148983
1.14217
1.110376
1.030566
0.914744
0.822605
0.728195
0.68018
0.605885
0.552029
0.536132
0.553002
0.607507
0.672069
0.726898
0.786269
0.850182
0.906957
0.869972
0.843369
0.783024
0.701268
0.641897
0.598747
0.557544
0.529968
0.512448
0.508555
0.558842
0.626
0.679531
0.764207
0.837529
0.917015
0.932912
0.879056
0.810926
0.729818
0.654225
0.600045
0.557544
0.526075
0.512448
0.539052
0.582201
0.665256
0.735657
0.799895
0.880029
0.962435
1.037054
1.037054
0.993581
0.909228
0.824227
0.756097
0.6685
0.607831
0.54846
0.526075
0.581228
0.672069
0.788864
0.91085
1.003638
1.049383
1.068524
1.097399
1.042245
0.97379
0.882301
0.804112
0.724302
0.629568
0.55138
0.512773
0.504662
0.514071
0.565006
0.624377
0.666878
0.736955
0.793406
0.874514
0.92837
0.929668
0.90274
0.868026
0.832987
0.79146
0.743444
0.689588
0.624702
0.601018
0.599721
0.644168
0.69705
0.77102
0.856995
0.955622
1.039974
1.03965
1.004611
0.946862
0.866079
0.786918
0.677909
0.601992
0.533212
0.490063
0.490063
0.514395
0.564682
0.646114
0.743119
0.842395
0.947187
1.029268
1.00234
0.962111
0.89398
0.816116
0.73144
0.644817
0.566629
0.525426
0.516666
0.524128
0.590637
0.675313
0.751879
0.863808
0.971844
1.069173
1.100643
1.073715
1.01694
0.92837
0.840124
0.770047
0.731115
0.698023
0.644817
0.626324
0.625351
0.698348
0.781727
0.863483
0.974764
1.094479
1.196999
1.190835
1.138926
1.055547
0.952378
0.855697
0.779131
0.749932
0.702241
0.640923
0.619511
0.640599
0.708081
0.808006
0.901118
0.978008
1.050681
1.100643
1.038028
0.96795
0.860239
0.746688
0.628919
0.513422
0.414795
0.36613
0.340175
0.350233
0.422905
0.525426
0.625026
0.741173
0.84856
0.960813
0.996176
0.961462
0.902091
0.828769
0.761936
0.692508
0.628271
0.565331
0.512124
0.519586
0.550083
0.636381
0.733386
0.821632
0.921557
1.032837
1.127895
1.125949
1.095128
1.041596
0.981252
0.938427
0.889114
0.860564
0.818387
0.780105
0.780753
0.809628
0.878732
0.968275
1.061062
1.13114
1.181102
1.215167
1.145739
1.083448
1.009478
0.942645
0.883598
0.824227
0.777185
0.761612
0.755448
0.751879
0.777185
0.813521
0.853102
0.94524
1.03673
1.118811
1.100643
1.015642
0.912797
0.809952
0.721707
0.646114
0.610102
0.589014
0.570197
0.595503
0.630542
0.713272
0.786918
0.86835
0.964382
1.069173
1.140548
1.11946
1.06236
0.974115
0.889438
0.816441
0.723653
0.659092
0.596801
0.562735
0.54846
0.571171
0.625026
0.706783
0.796002
0.888465
0.972492
1.046787
1.010775
0.968599
0.888789
0.804437
0.735657
0.67434
0.640599
0.630866
0.650656
0.69705
0.77686
0.892033
1.031863
1.189213
1.323203
1.442918
1.465629
1.403662
1.31931
1.235931
1.177209
1.110052
1.047436
0.995203
0.942645
0.935832
0.94816
1.016615
1.086368
1.13925
1.204461
1.312821
1.406582
1.400418
1.367001
1.305035
1.2249
1.138277
1.026673
0.966977
0.94232
0.966977
1.018886
1.091559
1.17364
1.219709
1.245988
1.267076
1.307955
1.346887
1.280378
1.20219
1.088315
0.971844
0.867701
0.769723
0.674664
0.616591
0.589663
0.612698
0.698023
0.798597
0.895927
1.002016
1.098048
1.190511
1.209003
1.169747
1.111025
1.020833
0.947511
0.882301
0.848884
0.820983
0.781727
0.77686
0.792757
0.85667
0.917664
0.984172
1.061387
1.163907
1.234958
1.214519
1.155148
1.063982
0.973141
0.896575
0.819685
0.766154
0.706134
0.684722
0.713921
0.783024
0.88814
1.019535
1.152876
1.244691
1.319959
1.343642
1.245015
1.130491
0.978657
0.84272
0.721382
0.622106
0.541323
0.50596
0.507582
0.536132
0.604911
0.717489
0.85667
1.012073
1.151903
1.269672
1.290111
1.233336
1.130491
0.989039
0.850182
0.730791
0.652603
0.595179
0.562735
0.578633
0.613022
0.703214
0.818712
0.955298
1.080204
1.19635
1.26221
1.205434
1.11946
1.003638
0.892682
0.797624
0.706459
0.637355
0.559816
0.532563
0.550731
0.602316
0.678233
0.73728
0.807681
0.857968
0.908904
0.942969
0.884572
0.820334
0.720409
0.627946
0.554625
0.506933
0.461837
0.445291
0.462486
0.509853
0.609129
0.72852
0.834933
0.952378
1.057818
1.135033
1.142819
1.102265
1.043867
0.968275
0.898522
0.819361
0.790486
0.774914
0.753826
0.774589
0.780105
0.781402
0.770696
0.805086
0.872892
0.983848
1.091559
1.11654
1.104212
1.038677
0.95984
0.861861
0.756421
0.721707
0.727871
0.755772
0.790486
0.834933
0.894629
0.933561
0.97087
1.015317
1.060089
1.088315
1.022455
0.956595
0.878083
0.797624
0.729169
0.667527
0.603289
0.566629
0.563709
0.572144
0.629244
0.708405
0.765505
0.835907
0.902091
0.954649
0.940049
0.887816
0.821307
0.738902
0.669149
0.610751
0.581552
0.552354
0.526723
0.539052
0.569873
0.643843
0.706459
0.760314
0.813521
0.881652
0.930316
0.892682
0.841098
0.764532
0.683748
0.618538
0.553327
0.516017
0.490387
0.494929
0.52283
0.581877
0.673691
0.775887
0.881652
0.98255
1.086368
1.146388
1.121082
1.095452
1.033486
0.966653
0.904037
0.857644
0.794055
0.763234
0.746039
0.728195
0.749932
0.816765
0.871594
0.948485
1.029268
1.088963
1.067227
0.995203
0.92253
0.846613
0.795353
0.747337
0.734035
0.720409
0.702565
0.713921
0.745715
0.829743
0.905011
0.963408
1.007207
1.043219
1.035108
0.963408
0.892358
0.796975
0.69997
0.616267
0.523479
0.455673
0.410253
0.410901
0.449184
0.532239
0.63411
0.721382
0.833636
0.926099
1.015642
1.061062
1.000718
0.937129
0.843369
0.750257
0.663958
0.601018
0.541647
0.51472
0.519262
0.550083
0.630866
0.729493
0.824876
0.941023
1.05652
1.146388
1.155796
1.098372
1.009153
0.908255
0.830716
0.754474
0.705485
0.655523
0.607183
0.612373
0.638977
0.700619
0.747986
0.808655
0.875812
0.955622
1.008829
0.983199
0.933561
0.870297
0.852777
0.889762
0.91669
0.953351
0.965355
0.936156
0.911499
0.934534
0.975737
0.986443
1.003314
1.016615
1.029917
1.018237
0.940698
0.873541
0.774265
0.677909
0.581552
0.50596
0.44886
0.42323
0.439451
0.487792
0.587717
0.687317
0.759665
0.847586
0.946862
1.038028
1.04841
1.012398
0.962111
0.900793
0.853751
0.789513
0.751555
0.698023
0.630542
0.611076
0.616915
0.676286
0.730791
0.787242
0.82812
0.89106
0.937129
0.897224
0.847911
0.775563
0.69705
0.637679
0.591285
0.566953
0.562411
0.59745
0.649034
0.732089
0.844666
0.939725
1.043543
1.126922
1.220034
1.305359
1.298871
1.271618
1.207381
1.122704
1.0111
0.923179
0.850182
0.797624
0.749932
0.689588
0.685695
0.721382
0.75123
0.795677
0.837853
0.864132
0.809628
0.750906
0.684073
0.621782
0.581228
0.526723
0.515693
0.523155
0.52867
0.583823
0.62308
0.685371
0.766803
0.855373
0.93421
1.022779
1.08799
1.06528
1.02505
0.947187
0.863808
0.774914
0.672393
0.587717
0.510177
0.49428
0.516991
0.584797
0.68829
0.780429
0.884247
0.955622
1.024402
1.050032
0.98547
0.921232
0.857319
0.784322
0.727547
0.689913
0.653901
0.642221
0.673691
0.714894
0.791135
0.873216
0.94816
1.021482
1.077933
1.136979
1.114918
1.052627
0.967626
0.864781
0.775563
0.67142
0.621133
0.589014
0.589663
0.650981
0.73436
0.8398
0.929668
1.002016
1.04841
1.094154
1.131464
1.079879
1.010451
0.933236
0.85959
0.82293
0.782051
0.745715
0.702241
0.685695
0.714569
0.794704
0.898522
0.983523
1.07112
1.105509
1.103887
1.050681
0.946538
0.85148
0.751879
0.654225
0.588365
0.567602
0.546514
0.560464
0.60848
0.683748
0.822605
0.959515
1.065604
1.175587
1.245015
1.227496
1.100967
0.98547
0.887491
0.793082
0.71976
0.627297
0.57701
0.529319
0.506933
0.533537
0.586743
0.687317
0.787891
0.875487
0.957893
1.067551
1.14509
1.118487
1.055223
0.958866
0.874839
0.807032
0.724951
0.662985
0.615618
0.594854
0.612049
0.677909
0.768101
0.837529
0.91961
0.979306
1.045165
1.061387
1.003638
0.934534
0.84272
0.757394
0.689588
0.650656
0.613022
0.598747
0.625675
0.675962
0.766803
0.863483
0.935507
1.023753
1.118487
1.199919
1.189537
1.130815
1.046138
0.94232
0.873541
0.784322
0.751555
0.731764
0.735009
0.783998
0.870945
0.986443
1.090586
1.181426
1.238202
1.282325
1.296275
1.235931
1.196026
1.141521
1.061387
0.987741
0.911499
0.8398
0.789513
0.772643
0.787891
0.825525
0.868674
0.926423
1.032837
1.109727
1.188888
1.21679
1.173965
1.118811
1.043867
0.97963
0.91669
0.85959
0.80833
0.770696
0.767452
0.759016
0.795028
0.847586
0.913122
1.006558
1.09675
1.160663
1.157419
1.123353
1.066578
0.979954
0.907606
0.821632
0.768749
0.723329
0.69705
0.707756
0.744093
0.801193
0.844666
0.890087
0.920908
0.969897
1.021806
0.971844
0.924477
0.850506
0.77102
0.72268
0.67726
0.631839
0.601992
0.594854
0.623404
0.698672
0.785295
0.858617
0.95108
1.022779
1.108429
1.139575
1.093505
1.034135
0.962111
0.88522
0.816765
0.766478
0.724302
0.69413
0.70581
0.735009
0.805086
0.892358
0.98839
1.116216
1.258641
1.381925
1.418262
1.406258
1.334234
1.207705
1.092857
0.971195
0.899171
0.834933
0.788864
0.778482
0.770047
0.777185
0.836556
0.933236
1.022455
1.12238
1.210625
1.204461
1.180778
1.108754
1.00526
0.906308
0.814494
0.735982
0.699321
0.696401
0.704836
0.740524
0.809628
0.868026
0.95692
1.024402
1.100967
1.110376
1.055871
0.985145
0.893007
0.796651
0.716192
0.661363
0.603289
0.567602
0.58285
0.617564
0.701268
0.808655
0.906957
1.017913
1.13114
1.195377
1.173965
1.11946
1.037379
0.933885
0.84856
0.749284
0.703863
0.66558
0.646763
0.674664
0.732413
0.824227
0.91961
1.01694
1.11946
1.216465
1.27908
1.218412
1.148659
1.06236
0.967626
0.879705
0.81125
0.764856
0.746364
0.75123
0.770372
0.80541
0.853102
0.869648
0.922206
0.988065
1.081826
1.09967
1.047761
0.97671
0.906308
0.837205
0.780105
0.748635
0.721382
0.69121
0.694779
0.719436
0.79438
0.895278
1.001042
1.120109
1.204137
1.244042
1.200568
1.146063
1.071769
0.986443
0.91085
0.808979
0.739226
0.664931
0.624377
0.632488
0.684073
0.765181
0.865106
0.962435
1.058791
1.158067
1.230416
1.187915
1.133086
1.044192
0.952702
0.867052
0.771994
0.670122
0.598747
0.557544
0.562411
0.618862
0.69705
0.75999
0.849857
0.920583
1.006558
1.02797
0.981577
0.924801
0.860888
0.797948
0.74539
0.713921
0.703863
0.709703
0.738902
0.777185
0.846613
0.935183
1.031215
1.158392
1.279405
1.315741
1.237878
1.168774
1.09675
1.015642
0.933885
0.826174
0.74539
0.67726
0.647412
0.693806
0.810277
0.9394
1.055871
1.169423
1.283298
1.389387
1.472117
1.426372
1.330341
1.172991
1.006882
0.876461
0.77394
0.720734
0.695103
0.707107
0.742146
0.811574
0.887167
0.945565
1.000394
1.029917
1.088315
1.088963
1.024726
0.941996
0.860239
0.757719
0.666553
0.607831
0.562087
0.52867
0.543918
0.580904
0.67434
0.773616
0.857968
0.964706
1.0682
1.13633
1.113296
1.069822
1.002016
0.941347
0.900469
0.844991
0.811574
0.783024
0.783998
0.83104
0.913122
1.006233
1.088639
1.15093
1.200244
1.25053
1.298871
1.271943
1.19927
1.066902
0.96795
0.930641
0.90274
0.873865
0.827796
0.806384
0.823903
0.878083
0.981577
1.083448
1.172667
1.182075
1.187266
1.174289
1.1678
1.13925
1.106807
1.085395
1.047436
0.981901
0.898522
0.816765
0.768749
0.780105
0.852453
0.924477
0.983848
1.061711
1.136006
1.184022
1.158067
1.11362
1.031215
0.930641
0.832014
0.721382
0.657145
0.596152
0.558193
0.557869
0.608805
0.687966
0.77102
0.866403
0.955298
1.03965
1.111349
1.084746
1.039974
0.957569
0.876785
0.815143
0.755772
0.705485
0.68018
0.676611
0.693157
0.755772
0.826823
0.898847
0.989363
1.066902
1.147686
1.143468
1.082475
1.009802
0.938752
0.867701
0.80249
0.76291
0.743768
0.719436
0.744742
0.780753
0.852128
0.940049
1.018562
1.114918
1.202839
1.269347
1.254424
1.232362
1.190835
1.166178
1.160987
1.163258
1.222629
1.226198
1.160987
1.098048
1.056196
1.009802
0.993905
1.026673
1.069822
1.130815
1.206732
1.19927
1.190186
1.138926
1.069173
0.970221
0.863808
0.781727
0.723978
0.687966
0.667202
0.70873
0.782376
0.860239
0.954324
1.041272
1.135682
1.155148
1.120433
1.060413
0.985794
0.895927
0.816441
0.762585
0.709703
0.661038
0.680828
0.73144
0.824227
0.907606
0.98547
1.073066
1.159041
1.219061
1.17656
1.111674
1.01694
0.92545
0.844342
0.763883
0.718138
0.677584
0.657145
0.668176
0.728195
0.80833
0.880678
0.968599
1.049058
1.121731
1.173316
1.119136
1.067227
0.984821
0.907606
0.834285
0.776536
0.741173
0.742146
0.762261
0.80249
0.881652
0.977035
1.09675
1.258641
1.394578
1.500992
1.512996
1.455247
1.342345
1.178507
1.02797
0.921881
0.863483
0.803464
0.713596
0.68829
0.713272
0.815468
0.924477
1.020833
1.113945
1.204137
1.246313
1.198297
1.144117
1.068849
0.991958
0.917664
0.843044
0.79438
0.751879
0.740524
0.744093
0.779131
0.839151
0.914095
1.002016
1.086044
1.172667
1.240149
1.164232
1.07112
0.979954
0.895602
0.828769
0.777509
0.738902
0.726898
0.73728
0.765181
0.832014
0.906308
0.971195
1.052627
1.11362
1.173965
1.156121
1.081502
0.983199
0.882949
0.795028
0.712947
0.662985
0.628595
0.597125
0.619835
0.662011
0.753826
0.844018
0.932912
1.03089
1.134708
1.197648
1.161961
1.111349
1.044841
0.979954
0.935183
0.895602
0.883923
0.876785
0.907282
0.961786
1.04257
1.135357
1.225549
1.300493
1.354024
1.399769
1.430914
1.353375
1.281351
1.184995
1.049707
0.877758
0.751879
0.660389
0.604911
0.607183
0.639626
0.749608
0.901442
1.048734
1.205759
1.34494
1.408204
1.326772
1.165854
1.018886
0.88814
0.770372
0.675962
0.627297
0.594854
0.557544
0.572468
0.60848
0.692184
0.778807
0.876136
0.983199
1.115891
1.210301
1.19927
1.156121
1.078906
0.99942
0.93421
0.873216
0.837853
0.793406
0.771669
0.79146
0.849857
0.930641
1.008504
1.092532
1.160338
1.219061
1.256695
1.193106
1.12238
1.022455
0.930316
0.84564
0.766803
0.694779
0.650332
0.650656
0.670122
0.73728
0.821956
0.914744
1.028944
1.15385
1.28784
1.359215
1.348509
1.295626
1.23366
1.121731
0.955622
0.856022
0.816765
0.796002
0.818712
0.855048
0.948485
1.068849
1.183049
1.308279
1.458167
1.524351
1.444865
1.340074
1.207057
1.086692
0.975412
0.87711
0.803464
0.73144
0.69997
0.717165
0.771345
0.843369
0.909877
0.98547
1.0682
1.17656
1.264481
1.244042
1.211923
1.111025
0.949782
0.804761
0.713596
0.653576
0.628595
0.64287
0.653576
0.696077
0.764207
0.83688
0.925125
1.007531
1.082799
1.084097
1.040948
0.96276
0.868999
0.784322
0.708081
0.658767
0.618862
0.583499
0.613347
0.663634
0.761612
0.869323
0.96795
1.070471
1.169747
1.240473
1.191808
1.137304
1.049058
0.95692
0.873865
0.791784
0.735009
0.68829
0.67142
0.699321
0.767776
0.843693
0.925774
1.015966
1.100319
1.175911
1.220034
1.175262
1.121407
1.041596
0.967302
0.912473
0.879381
0.857968
0.844018
0.866079
0.905335
0.987092
1.070471
1.146388
1.222305
1.281676
1.32807
1.305684
1.235931
1.138926
1.028295
0.905984
0.785295
0.723005
0.674989
0.646114
0.676286
0.729169
0.82001
0.923503
0.9965
1.060738
1.132762
1.213221
1.222629
1.226522
1.183049
1.121407
1.055871
0.992607
0.944916
0.896251
0.867701
0.849857
0.843369
0.858617
0.889762
0.961462
1.035108
1.113945
1.143468
1.067875
0.996176
0.901766
0.816765
0.753501
0.707107
0.666229
0.643519
0.655198
0.702565
0.787566
0.889114
0.992283
1.085719
1.174613
1.256046
1.258317
1.202839
1.1253
1.020508
0.929343
0.826174
0.746039
0.659092
0.592259
0.592583
0.638328
0.719436
0.800219
0.889762
0.983848
1.09967
1.184995
1.169747
1.143792
1.093181
1.043219
0.986767
0.912473
0.845315
0.784322
0.749608
0.75707
0.800868
0.877434
0.950107
1.056845
1.147037
1.242744
1.306333
1.288165
1.249233
1.173316
1.092532
1.002665
0.905011
0.795353
0.720409
0.711649
0.730467
0.789189
0.860888
0.932912
1.009478
1.089937
1.149957
1.149957
1.121082
1.080528
1.018237
0.951404
0.860239
0.796975
0.752528
0.73436
0.763883
0.822605
0.906308
1.005585
1.109403
1.202515
1.281351
1.317688
1.25637
1.194404
1.088639
0.956271
0.82812
0.706459
0.62308
0.579281
0.575064
0.619835
0.711649
0.81709
0.904362
1.021482
1.138602
1.244691
1.303088
1.27097
1.224576
1.14217
1.064307
0.989039
0.924152
0.866403
0.816765
0.805735
0.805086
0.850831
0.901118
0.951729
1.001042
1.04257
1.069822
1.048085
0.994229
0.923828
0.829418
0.753501
0.667527
0.624377
0.588365
0.568251
0.603614
0.654874
0.735333
0.818063
0.906633
0.998771
1.104861
1.182075
1.149632
1.095452
1.012398
0.941671
0.871919
0.816441
0.766478
0.741173
0.736306
0.771669
0.859915
0.959515
1.03381
1.132113
1.198621
1.261561
1.270321
1.192457
1.1107
1.019211
0.954324
0.896575
0.84856
0.818063
0.783349
0.765505
0.77102
0.846937
0.937454
1.008829
1.08215
1.156445
1.18824
1.14509
1.083124
1.010127
0.909877
0.827796
0.743768
0.702565
0.65974
0.623404
0.662011
0.723329
0.796651
0.851804
0.904037
0.948809
1.021157
1.084746
1.03381
0.990661
0.933561
0.877434
0.819361
0.752528
0.70873
0.686344
0.68829
0.725276
0.793082
0.86543
0.923828
0.992932
1.030566
1.074688
1.085395
1.02797
0.94524
0.842395
0.745066
0.663634
0.615942
0.57993
0.552354
0.572793
0.609454
0.697699
0.795028
0.883923
0.980603
1.076311
1.145739
1.142819
1.092532
1.020184
0.929992
0.855697
0.773291
0.727222
0.684722
0.667527
0.696401
0.758043
0.863159
0.970546
1.071769
1.153201
1.206408
1.212896
1.149957
1.094479
1.0111
0.923503
0.854724
0.796651
0.744093
0.711649
0.67726
0.673367
0.733711
0.809303
0.870297
0.989363
1.127246
1.304711
1.414693
1.422804
1.384521
1.297573
1.200892
1.091234
1.027646
0.961786
0.88522
0.810601
0.720085
0.679531
0.680828
0.723653
0.780105
0.855048
0.915068
0.904362
0.858941
0.794704
0.701917
0.629244
0.545541
0.504987
0.46281
0.44886
0.48033
0.536132
0.632164
0.738253
0.832014
0.911175
1.006233
1.073066
1.034459
0.978657
0.901118
0.827147
0.750257
0.684073
0.618862
0.585446
0.571171
0.591285
0.652603
0.727547
0.79146
0.886194
0.968275
1.058142
1.093181
1.056845
1.009802
0.935832
0.868999
0.799246
0.754799
0.709378
0.679531
0.685695
0.701592
0.761612
0.829418
0.913122
1.012398
1.115242
1.17948
1.174938
1.129842
1.080204
1.001691
0.944591
0.868999
0.821307
0.749284
0.702241
0.726573
0.792433
0.875812
0.934858
0.991634
1.016615
1.035108
1.015966
0.920259
0.845315
0.771669
0.698348
0.647736
0.601667
0.551705
0.542296
0.555273
0.609454
0.726898
0.850506
0.963733
1.106807
1.201541
1.306008
1.346887
1.269996
1.12822
0.981901
0.863808
0.762261
0.703863
0.643843
0.59161
0.576686
0.559167
0.604263
0.682451
0.769398
0.861537
0.966653
1.036406
1.01986
0.948809
0.853102
0.741822
0.657469
0.564033
0.516342
0.47741
0.448535
0.470272
0.535159
0.649359
0.763234
0.870945
0.966328
1.048734
1.10259
1.05944
1.007856
0.920908
0.830391
0.747013
0.656496
0.581228
0.541972
0.530292
0.555598
0.636381
0.7256
0.801193
0.911499
1.001042
1.095128
1.118811
1.079555
1.024402
0.952053
0.881652
0.797299
0.727871
0.660389
0.604587
0.58577
0.592908
0.655523
0.73728
0.812223
0.919286
1.045165
1.157419
1.183698
1.179804
1.114918
0.974439
0.838827
0.733386
0.70581
0.694455
0.698672
0.746039
0.84272
0.943618
1.044841
1.143144
1.228145
1.34786
1.41891
1.361162
1.287191
1.172991
1.000069
0.825525
0.668176
0.537105
0.44302
0.390787
0.377485
0.418039
0.488116
0.565655
0.688939
0.795353
0.910526
0.954324
0.92837
0.872243
0.798922
0.723005
0.636706
0.587717
0.544567
0.519262
0.533212
0.566953
0.637679
0.711325
0.786269
0.855697
0.934534
0.995527
0.973466
0.933885
0.881976
0.825201
0.784647
0.726898
0.703863
0.669149
0.657145
0.686344
0.75415
0.842395
0.925125
1.002989
1.054898
1.11946
1.145739
1.079879
1.003314
0.896251
0.78854
0.697699
0.616915
0.543918
0.496876
0.47741
0.488765
0.550083
0.635408
0.716516
0.831365
0.936481
1.04549
1.077933
1.049707
0.991634
0.917664
0.854075
0.790486
0.777509
0.793731
0.823903
0.86835
0.886194
0.91085
0.926099
0.934858
0.975412
1.057169
1.132762
1.117838
1.069173
0.985794
0.882301
0.795677
0.69997
0.638004
0.578308
0.563384
0.58285
0.650332
0.742146
0.827147
0.914744
0.986443
1.049058
1.065929
1.001042
0.929343
0.826498
0.733711
0.656172
0.595179
0.552678
0.534834
0.56306
0.626973
0.711001
0.788215
0.850831
0.942969
1.013371
1.087666
1.088639
1.022779
0.933236
0.826823
0.73144
0.64287
0.601992
0.579606
0.563384
0.576362
0.629568
0.718787
0.820334
0.927072
1.026024
1.118162
1.17948
1.153201
1.081826
0.972817
0.857968
0.785295
0.707107
0.651305
0.605885
0.595827
0.642221
0.737604
0.849533
0.958542
1.064956
1.127895
1.187266
1.219385
1.147686
1.0682
0.967302
0.872568
0.798273
0.723005
0.645141
0.553651
0.490712
0.472543
0.538727
0.652279
0.769074
0.895278
0.999096
1.087666
1.089937
1.046138
0.968275
0.873216
0.783998
0.682451
0.609454
0.559816
0.53159
0.559816
0.604263
0.695428
0.799895
0.901118
0.994554
1.078582
1.125949
1.090586
1.047761
0.98255
0.891709
0.804112
0.724951
0.692832
0.681153
0.710352
0.756421
0.832987
0.914095
0.998123
1.091559
1.162609
1.224251
1.255072
1.192782
1.11654
1.031863
0.947187
0.872892
0.796975
0.740199
0.700619
0.673042
0.683424
0.766154
0.857644
0.927721
1.03089
1.101616
1.132762
1.082799
0.990985
0.887816
0.806059
0.738577
0.663309
0.621133
0.571495
0.522181
0.543594
0.612698
0.719111
0.825525
0.904037
0.966328
1.038677
1.081502
1.041272
0.984172
0.895278
0.796002
0.719111
0.652279
0.608156
0.562735
0.557544
0.584797
0.650332
0.739226
0.826498
0.920908
1.007207
1.076635
1.11362
1.057169
0.992607
0.913446
0.847586
0.79438
0.743444
0.695752
0.674015
0.678557
0.698023
0.767127
0.844991
0.916366
0.994878
1.06236
1.120109
1.10778
1.067875
0.993256
0.911499
0.827147
0.739551
0.6831
0.66558
0.660389
0.70289
0.785295
0.897873
0.986119
1.05944
1.146388
1.236904
1.29368
1.219385
1.101616
0.9394
0.797948
0.691859
0.586094
0.517315
0.463459
0.451455
0.479032
0.543269
0.647736
0.763883
0.887816
1.018237
1.144766
1.227171
1.20511
1.186293
1.133735
1.07404
1.041596
0.994554
0.888789
0.767127
0.73436
0.771345
0.854075
0.921881
0.972492
1.035757
1.076959
1.098372
1.035757
0.941671
0.829743
0.733711
0.653901
0.562087
0.509853
0.473192
0.455024
0.495254
0.577984
0.700619
0.825849
0.925125
1.026997
1.120758
1.181102
1.138277
1.075013
0.980928
0.882301
0.786269
0.690237
0.626
0.569548
0.552678
0.558193
0.612373
0.702565
0.791784
0.903389
1.021482
1.135682
1.20803
1.177533
1.123678
1.037703
0.94232
0.85667
0.78854
0.714894
0.659092
0.643194
0.651954
0.706459
0.77102
0.832338
0.898522
0.965031
1.044192
1.053925
1.012073
0.953675
0.918961
0.917988
0.89982
0.898847
0.886518
0.844666
0.818387
0.805735
0.83104
0.876136
0.940374
1.008829
1.07112
1.120109
1.089288
1.052952
0.981577
0.898198
0.840449
0.814819
0.828445
0.838178
0.848884
0.877758
0.954
1.032837
1.103563
1.17364
1.228469
1.284596
1.300817
1.225874
1.129193
1.008504
0.877758
0.767776
0.687317
0.610427
0.541323
0.518937
0.519262
0.58869
0.66558
0.7256
0.809303
0.875487
0.943943
0.935183
0.887816
0.813845
0.73728
0.675313
0.599396
0.5543
0.520559
0.498822
0.52867
0.58285
0.686344
0.798273
0.896251
1.000718
1.096101
1.162934
1.130166
1.087017
1.003962
0.918637
0.850831
0.778807
0.717165
0.64871
0.622106
0.655847
0.746039
0.857968
0.980603
1.10778
1.21095
1.305359
1.325799
1.246637
1.157743
1.041596
0.940698
0.856022
0.794704
0.762585
0.732089
0.723978
0.695428
0.739226
0.85148
0.970221
1.092857
1.206732
1.259615
1.2395
1.179804
1.08215
0.957569
0.838827
0.710352
0.614644
0.536781
0.489414
0.515044
0.575713
0.678882
0.803788
0.929019
1.047436
1.172667
1.256695
1.223278
1.172342
1.071769
0.961462
0.878083
0.816116
0.785944
0.763883
0.751879
0.759665
0.803788
0.882301
0.970221
1.078582
1.160663
1.248908
1.292382
1.239824
1.154499
1.03673
0.909877
0.790486
0.69705
0.618862
0.555922
0.550407
0.555598
0.632813
0.717489
0.812223
0.905984
0.992932
1.069498
1.076959
1.041596
0.971195
0.889114
0.821632
0.747337
0.708081
0.682775
0.667527
0.698997
0.74831
0.821632
0.90274
1.009478
1.137953
1.274538
1.377383
1.330016
1.25637
1.15969
1.057169
0.946862
0.847586
0.765181
0.727547
0.711974
0.725924
0.770696
0.844342
0.90566
0.991958
1.070471
1.15677
1.179155
1.117189
1.051978
0.964382
0.875163
0.796975
0.745066
0.692184
0.629568
0.60848
0.608805
0.673042
0.749284
0.824552
0.911175
1.003314
1.074364
1.071444
1.016615
0.943943
0.867052
0.801193
0.71976
0.674664
0.648061
0.642221
0.691859
0.763883
0.857644
0.958866
1.049707
1.152552
1.247611
1.315092
1.264157
1.213221
1.1253
1.035432
0.949458
0.870945
0.796002
0.742795
0.713921
0.718787
0.786918
0.875163
0.952378
1.051005
1.133086
1.229118
1.25345
1.198946
1.14509
1.062684
0.973141
0.890736
0.819361
0.762261
0.736306
0.770047
0.832338
0.949133
1.062036
1.140873
1.187266
1.220358
1.252477
1.225549
1.189862
1.124651
1.018562
0.912473
0.791135
0.735982
0.711649
0.698023
0.701917
0.729169
0.805086
0.924152
1.050681
1.171369
1.297249
1.363757
1.279729
1.196675
1.090586
0.994229
0.904037
0.796975
0.692832
0.626648
0.587717
0.592583
0.641897
0.718138
0.778158
0.871919
0.951729
1.015966
1.032837
0.986767
0.932263
0.849208
0.775563
0.721382
0.68829
0.650007
0.633461
0.652279
0.680828
0.757394
0.834285
0.922854
1.024402
1.138926
1.230091
1.235282
1.197648
1.132437
1.037379
0.962435
0.869648
0.814819
0.764532
0.725276
0.730791
0.756097
0.816765
0.889762
0.984172
1.088315
1.193106
1.264481
1.215167
1.142819
1.031539
0.916366
0.811899
0.713272
0.624053
0.581552
0.550731
0.570522
0.63995
0.736306
0.833636
0.967626
1.093505
1.227171
1.274214
1.242095
1.190511
1.095128
0.974439
0.848235
0.767127
0.702241
0.658443
0.660065
0.68018
0.762261
0.827796
0.894953
0.978008
1.099345
1.221656
1.266752
1.235607
1.161312
1.052303
0.926423
0.793406
0.753826
0.734684
0.738253
0.784647
0.834933
0.912148
1.000069
1.105834
1.224576
1.362135
1.480553
1.478282
1.433834
1.343967
1.245988
1.12238
0.969573
0.805086
0.664931
0.556896
0.504013
0.52575
0.593232
0.657794
0.747986
0.824552
0.903064
0.915393
0.866403
0.801193
0.712298
0.626
0.550083
0.515368
0.48617
0.460539
0.478383
0.509853
0.60264
0.692508
0.781078
0.883923
0.992283
1.068849
1.071769
1.040623
0.987416
0.918961
0.858617
0.771669
0.714569
0.676611
0.65163
0.676611
0.728195
0.813521
0.902091
1.000394
1.083448
1.174938
1.24242
1.215492
1.163907
1.058467
0.968599
0.903064
0.857319
0.819361
0.813521
0.812223
0.830391
0.910202
1.018562
1.097723
1.1678
1.214843
1.264805
1.242744
1.151579
1.041272
0.897873
0.758692
0.619511
0.515693
0.429394
0.353477
0.338553
0.365481
0.450482
0.547163
0.650656
0.787242
0.948809
1.079231
1.114918
1.106807
1.059116
0.999096
0.939725
0.853426
0.789837
0.706783
0.638977
0.619835
0.643194
0.709054
0.784647
0.869323
0.938752
1.004611
1.055547
1.000718
0.94524
0.861212
0.771345
0.703539
0.641897
0.590961
0.586094
0.599721
0.643843
0.723329
0.821307
0.919935
1.04549
1.165529
1.293355
1.340722
1.327096
1.281027
1.209003
1.136979
1.049058
0.95692
0.853102
0.752528
0.679206
0.630542
0.639301
0.638004
0.64871
0.693157
0.776211
0.849533
0.852128
0.84272
0.810277
0.781402
0.781402
0.75415
0.736306
0.703863
0.67142
0.678882
0.710676
0.76291
0.797624
0.838502
0.872568
0.919286
0.945565
0.89982
0.86251
0.806059
0.744742
0.688615
0.633461
0.571819
0.563709
0.590312
0.646114
0.72268
0.800219
0.857968
0.938427
1.006558
1.077608
1.066253
0.985794
0.895278
0.790811
0.712947
0.634759
0.598747
0.570846
0.542945
0.562087
0.606858
0.697374
0.784322
0.869648
0.966977
1.079879
1.184346
1.220358
1.220034
1.174289
1.102265
1.030566
0.931939
0.846289
0.757719
0.697699
0.668825
0.675962
0.715218
0.764856
0.83396
0.89106
0.955622
1.015966
0.993581
0.973141
0.925125
0.874514
0.825849
0.779456
0.727222
0.705485
0.70289
0.725276
0.786918
0.882949
0.967626
1.067227
1.143144
1.220683
1.236904
1.181102
1.100319
0.97671
0.850182
0.736306
0.664931
0.588041
0.515044
0.470921
0.452104
0.519586
0.640275
0.775563
0.916041
1.093505
1.221656
1.239175
1.210625
1.153525
1.041596
0.927397
0.808006
0.720734
0.603938
0.504662
0.466379
0.468326
0.527697
0.589339
0.679531
0.756097
0.833311
0.878732
0.838502
0.808006
0.769074
0.748959
0.729169
0.700943
0.649359
0.624053
0.605885
0.626648
0.706134
0.804112
0.87127
0.950107
1.021482
1.092857
1.099345
1.037379
0.965679
0.883598
0.810277
0.738253
0.695103
0.650981
0.613996
0.613347
0.640923
0.707756
0.773291
0.844991
0.925125
1.016615
1.078257
1.050032
0.989687
0.898522
0.799895
0.721707
0.627297
0.556571
0.501742
0.494929
0.528021
0.595503
0.693806
0.790486
0.894953
0.989363
1.093181
1.170071
1.151254
1.11362
1.041921
0.963408
0.894953
0.850506
0.829418
0.847911
0.891709
0.938103
1.014993
1.087341
1.120109
1.177858
1.23074
1.264805
1.229442
1.148659
1.056196
0.946538
0.843693
0.749284
0.718787
0.710676
0.690561
0.696726
0.735333
0.795677
0.845315
0.90274
0.959191
1.001691
1.026348
0.98547
0.909228
0.822605
0.742146
0.667851
0.570846
0.504987
0.457295
0.4401
0.455673
0.531914
0.637355
0.723653
0.82001
0.904686
0.992932
1.034459
0.97963
0.90274
0.802815
0.699321
0.620484
0.5543
0.506284
0.502067
0.512773
0.547812
0.615618
0.701592
0.757719
0.823578
0.881652
0.926099
0.893007
0.814494
0.715867
0.606858
0.523155
0.437829
0.38884
0.348611
0.321358
0.336931
0.376836
0.459242
0.537105
0.623404
0.711325
0.807357
0.872243
0.852453
0.809303
0.737604
0.664931
0.61724
0.572144
0.550731
0.529319
0.538727
0.570197
0.636057
0.727871
0.807357
0.888789
0.937454
0.988714
1.019211
0.973141
0.945565
0.918312
0.89398
0.892033
0.907606
0.879705
0.823578
0.766478
0.749608
0.783349
0.836231
0.869972
0.927397
0.973141
1.027646
1.009802
0.952702
0.872568
0.774265
0.69705
0.622755
0.585121
0.532239
0.484547
0.501742
0.567926
0.654874
0.749932
0.827796
0.913122
1.022455
1.105834
1.097399
1.060413
0.991634
0.929343
0.897224
0.847262
0.809303
0.759665
0.74247
0.743119
0.795677
0.892033
0.989687
1.088963
1.148659
1.200892
1.20219
1.095452
0.96276
0.822281
0.698348
0.596152
0.531914
0.481952
0.46573
0.481303
0.515368
0.591285
0.689913
0.767127
0.865754
0.959515
1.043543
1.052952
1.013695
0.94232
0.86543
0.810277
0.748959
0.716516
0.680504
0.655198
0.679206
0.732089
0.822605
0.901766
0.970221
1.043543
1.132762
1.183373
1.136979
1.075662
1.00526
0.92253
0.864457
0.85148
0.908904
0.972168
1.070146
1.159041
1.234633
1.307306
1.361486
1.414693
1.429292
1.43351
1.415017
1.31639
1.186942
1.050681
0.896251
0.752203
0.625026
0.518613
0.44594
0.427123
0.443993
0.506933
0.591934
0.679206
0.785295
0.874514
0.969248
0.972492
0.939725
0.887491
0.82293
0.771994
0.714894
0.690561
0.658767
0.626973
0.648385
0.715543
0.825525
0.941347
1.044516
1.140224
1.225225
1.269023
1.217114
1.153525
1.061711
0.958542
0.863808
0.757394
0.688615
0.620809
0.6114
0.62016
0.672718
0.759016
0.854399
0.957893
1.042894
1.114918
1.138926
1.084746
1.035108
0.987092
0.918637
0.848235
0.778158
0.70581
0.682775
0.721382
0.792757
0.896575
1.006558
1.098696
1.218412
1.330341
1.418586
1.391983
1.334558
1.258317
1.161636
1.071444
0.934858
0.80833
0.688615
0.625675
0.638004
0.686019
0.757394
0.825525
0.877434
0.931614
0.999745
1.055547
1.006233
0.947511
0.864457
0.783998
0.715543
0.649034
0.623729
0.593881
0.591934
0.614644
0.679855
0.764856
0.855373
0.960813
1.059765
1.149632
1.186617
1.143144
1.086692
1.000718
0.890736
0.796326
0.721058
0.660714
0.603289
0.601018
0.611725
0.692184
0.789513
0.87711
0.97671
1.079555
1.184995
1.198621
1.169747
1.099994
1.025375
0.95692
0.888789
0.846613
0.803464
0.779456
0.776211
0.779456
0.819036
0.881976
0.943294
1.001042
1.065929
1.130815
1.095777
1.067227
1.024077
0.954649
0.872892
0.788864
0.727871
0.679206
0.664282
0.686993
0.763559
0.867377
0.975088
1.101292
1.199595
1.276485
1.300493
1.237878
1.137953
1.029592
0.933236
0.867052
0.825525
0.784647
0.744417
0.741173
0.742795
0.796326
0.868026
0.927397
0.992607
1.04841
1.091883
1.049058
0.974439
0.877758
0.799246
0.759341
0.731115
0.736631
0.726898
0.733386
0.778158
0.834609
0.906957
0.995527
1.073715
1.13633
1.18824
1.214843
1.124002
1.031539
0.921557
0.816765
0.723653
0.640599
0.592259
0.563384
0.562735
0.592908
0.665905
0.74539
0.811899
0.895278
0.964706
1.047112
1.078257
1.045814
1.015966
0.959515
0.908255
0.872892
0.862835
0.845964
0.819361
0.823903
0.823254
0.876785
0.94816
1.001367
1.051329
1.08507
1.097399
1.050032
1.024077
1.014669
1.004936
0.993581
0.953675
0.930965
0.872568
0.806384
0.794055
0.797948
0.803139
0.827472
0.869648
0.924152
0.977035
1.014993
0.952053
0.893007
0.821307
0.767452
0.731764
0.68829
0.656496
0.614644
0.575388
0.56306
0.621782
0.710676
0.802166
0.911175
1.004936
1.101941
1.135357
1.09675
1.039001
0.958866
0.867052
0.782051
0.703863
0.636057
0.572144
0.557869
0.559167
0.612698
0.6831
0.74539
0.826498
0.918637
0.99131
0.976386
0.938427
0.875487
0.811574
0.772967
0.721707
0.719436
0.718138
0.720734
0.780429
0.862186
0.964706
1.066253
1.15677
1.224576
1.252477
1.250206
1.161636
1.067875
0.946214
0.844342
0.772967
0.730142
0.703863
0.702565
0.714894
0.743119
0.809952
0.903064
1.007531
1.137628
1.251828
1.348833
1.369921
1.331314
1.286867
1.191808
1.062036
0.92545
0.784322
0.653576
0.525426
0.451131
0.422905
0.482601
0.582201
0.693157
0.803139
0.908904
0.976386
0.972492
0.944591
0.900793
0.858293
0.824876
0.772318
0.738253
0.703539
0.67434
0.688615
0.720085
0.77978
0.847262
0.917339
0.964706
0.997474
1.016615
0.944267
0.882949
0.792109
0.710027
0.634435
0.563709
0.510177
0.486494
0.481627
0.499147
0.564682
0.660065
0.760639
0.88522
0.998447
1.118811
1.181102
1.152876
1.09675
0.990012
0.860564
0.77102
0.734684
0.709703
0.672718
0.682126
0.69997
0.770372
0.849208
0.924477
1.026673
1.1253
1.183373
1.158067
1.111998
1.035108
0.955622
0.882625
0.777185
0.689913
0.643519
0.64871
0.710676
0.80541
0.924477
1.009478
1.061711
1.119784
1.189537
1.258966
1.236255
1.189537
1.084421
0.978008
0.85959
0.746364
0.650981
0.596152
0.560789
0.553327
0.596476
0.661363
0.720409
0.803139
0.878083
0.965355
1.001042
0.963084
0.906957
0.828445
0.744742
0.68018
0.65455
0.651954
0.669473
0.727547
0.791135
0.889438
0.991958
1.083448
1.170396
1.268374
1.326772
1.282974
1.192133
1.094154
1.007207
0.942645
0.873216
0.826823
0.784971
0.772318
0.82812
0.919935
1.032512
1.124975
1.166178
1.184995
1.240473
1.315092
1.274863
1.221332
1.119136
1.00818
0.910526
0.838827
0.783349
0.721707
0.667851
0.663634
0.736631
0.818712
0.883923
0.957244
0.998447
1.05944
1.094803
1.075662
1.036406
0.987741
0.946214
0.924801
0.924477
0.905011
0.890087
0.906633
0.915393
0.954973
1.009153
1.061387
1.130815
1.196026
1.230416
1.183373
1.1107
1.014669
0.918637
0.841747
0.756097
0.701917
0.648385
0.629893
0.666229
0.742795
0.834285
0.92253
1.01986
1.109727
1.223603
1.319959
1.297249
1.267076
1.191484
1.106158
1.02505
0.943943
0.885545
0.853102
0.825525
0.825201
0.857644
0.91961
0.987741
1.064307
1.137628
1.223927
1.25345
1.221332
1.17364
1.110376
1.0536
0.988714
0.955622
0.920908
0.893331
0.917664
0.972817
1.094803
1.23366
1.357917
1.476659
1.573016
1.603188
1.534733
1.424101
1.288813
1.129193
0.987416
0.845315
0.719436
0.60848
0.542296
0.546189
0.614644
0.718463
0.817414
0.926423
1.038352
1.160338
1.253126
1.269672
1.295626
1.265779
1.209328
1.137953
1.075662
1.033161
1.017913
1.007856
1.002989
1.004611
1.009478
1.015642
1.052952
1.086044
1.132113
1.120758
1.033486
0.94232
0.857319
0.79957
0.738577
0.70289
0.678557
0.655198
0.673691
0.697374
0.764856
0.822605
0.881652
0.948809
1.03965
1.100643
1.076635
1.031215
0.96276
0.891385
0.831689
0.75707
0.708081
0.670122
0.653576
0.675313
0.730791
0.811899
0.888789
0.966328
1.035432
1.112647
1.167476
1.134384
1.106158
1.04841
0.983199
0.909553
0.851804
0.807032
0.785295
0.77686
0.778482
0.824876
0.890736
0.949458
1.031863
1.136979
1.246313
1.273241
1.212896
1.107456
1.006233
0.925125
0.874514
0.860564
0.837853
0.789837
0.783998
0.802815
0.874839
0.941347
1.004611
1.084746
1.173965
1.231065
1.198297
1.160338
1.111349
1.033486
0.944591
0.855373
0.790162
0.741822
0.70873
0.704836
0.730791
0.786918
0.835258
0.892033
0.941023
0.997798
1.04841
0.98839
0.92837
0.835907
0.763234
0.705485
0.662985
0.620809
0.605236
0.616591
0.651954
0.719436
0.799895
0.876461
0.966004
1.037054
1.104212
1.099345
1.054249
1.004287
0.94816
0.893331
0.811574
0.75707
0.714569
0.675313
0.686993
0.717489
0.793731
0.863483
0.921557
0.995852
1.09091
1.178507
1.154499
1.085395
0.989363
0.918312
0.849533
0.767127
0.708081
0.653576
0.623404
0.641897
0.698023
0.796651
0.872243
0.946538
1.019211
1.095777
1.133086
1.069498
0.999745
0.89982
0.807032
0.724302
0.6685
0.627622
0.615942
0.63411
0.668176
0.720085
0.77102
0.824227
0.940698
1.072742
1.205759
1.246962
1.213545
1.151903
1.067875
0.971844
0.854075
0.755448
0.658767
0.576686
0.552354
0.560789
0.628271
0.707756
0.796002
0.87711
0.976386
1.04257
1.015317
0.969573
0.905335
0.843693
0.797948
0.741173
0.696077
0.662011
0.643194
0.656821
0.706134
0.775563
0.845315
0.940374
1.019211
1.103563
1.163258
1.138926
1.113296
1.056845
0.987092
0.909877
0.852777
0.801841
0.772318
0.765181
0.779131
0.812223
0.855048
0.891709
0.958542
1.037379
1.130491
1.178507
1.156121
1.109727
0.998447
0.861861
0.740199
0.705485
0.69413
0.677584
0.701268
0.712623
0.754799
0.818387
0.902415
1.012073
1.158716
1.26221
1.276161
1.281676
1.247611
1.188564
1.135357
1.06236
0.983523
0.918312
0.896251
0.917339
0.972817
1.046787
1.107456
1.184346
1.24534
1.288165
1.295951
1.226198
1.177858
1.097074
1.033486
0.971195
0.903064
0.82812
0.782051
0.76583
0.767452
0.802815
0.838502
0.863808
0.90274
0.945889
0.974764
0.951404
0.885869
0.806384
0.726249
0.667527
0.598747
0.573442
0.561113
0.559816
0.614969
0.691535
0.812223
0.929668
1.042894
1.14217
1.243069
1.295626
1.255397
1.184671
1.092857
0.995203
0.915393
0.841747
0.784971
0.727222
0.70873
0.727871
0.769398
0.8398
0.912797
1.006233
1.075662
1.168774
1.230416
1.195053
1.140873
1.054898
0.99942
0.969248
0.963084
0.933885
0.896575
0.895278
0.955946
1.072417
1.186293
1.272267
1.349807
1.41891
1.458816
1.393929
1.284271
1.17656
1.072417
0.96795
0.842071
0.752203
0.670771
0.606209
0.618862
0.664282
0.768749
0.883598
0.993581
1.095128
1.203488
1.273565
1.233011
1.178507
1.103887
1.01986
0.940374
0.852453
0.777185
0.717489
0.698023
0.71976
0.784322
0.85959
0.93129
1.012073
1.074688
1.145739
1.187591
1.144117
1.097074
1.030566
0.979954
0.936156
0.900144
0.853426
0.818063
0.818712
0.843693
0.904362
0.974115
1.033161
1.117513
1.203812
1.287191
1.288489
1.23366
1.157743
1.060413
0.986443
0.924152
0.91085
0.89398
0.865106
0.870621
0.898847
0.958542
1.028944
1.083124
1.124975
1.174289
1.205759
1.14801
1.097399
1.035757
0.978981
0.916366
0.84272
0.814819
0.83104
0.89106
0.965355
1.041921
1.087341
1.077933
1.089612
1.089612
1.117189
1.120109
1.051654
0.960164
0.853426
0.75707
0.686344
0.632488
0.57409
0.553651
0.584797
0.629244
0.715543
0.823903
0.925125
1.029592
1.121407
1.199919
1.189537
1.125949
1.042894
0.932263
0.841098
0.741173
0.684073
0.633461
0.594205
0.606534
0.652279
0.741497
0.829418
0.895602
0.962435
1.043219
1.098048
1.060738
1.015317
0.950107
0.893656
0.838178
0.782051
0.745066
0.714245
0.706459
0.727871
0.793082
0.881976
0.94524
1.023753
1.087341
1.155472
1.181102
1.124651
1.050681
0.968275
0.909228
0.879705
0.872568
0.895927
0.965355
1.053276
1.11946
1.177209
1.237553
1.294653
1.373166
1.431239
1.477308
1.43059
1.326772
1.209328
1.08799
0.997149
0.901766
0.858617
0.821956
0.816116
0.856022
0.90274
0.945889
0.980928
1.010451
1.055223
1.106483
1.107132
1.019211
0.930641
0.833636
0.733062
0.648061
0.577659
0.552678
0.553002
0.592583
0.673691
0.796002
0.92545
1.004287
1.077284
1.121731
1.17072
1.170071
1.097399
1.002665
0.889762
0.791135
0.718463
0.675638
0.647736
0.635732
0.656172
0.692508
0.766154
0.853751
0.931614
1.011749
1.080853
1.139575
1.121731
1.063658
0.985145
0.889114
0.811574
0.724302
0.694779
0.673691
0.653576
0.679206
0.737928
0.818712
0.917988
1.026348
1.144117
1.257343
1.333261
1.304386
1.244366
1.149957
1.055871
0.97963
0.907931
0.837853
0.770696
0.71684
0.705161
0.783673
0.886518
0.976061
1.106807
1.221332
1.330665
1.377383
1.351753
1.31347
1.251828
1.171369
1.06528
0.93129
0.807681
0.743768
0.725276
0.717814
0.752528
0.832662
0.92545
1.04257
1.140224
1.209328
1.185644
1.114594
1.018886
0.901766
0.790162
0.663958
0.575388
0.496551
0.452104
0.472219
0.539376
0.649359
0.756745
0.840124
0.932912
1.026673
1.084097
1.031539
0.970221
0.892358
0.810277
0.737928
0.669473
0.609129
0.545216
0.523804
0.558518
0.641248
0.748635
0.843369
0.967626
1.059116
1.154499
1.187266
1.133086
1.043219
0.933236
0.83688
0.766154
0.729818
0.708405
0.686993
0.683748
0.692832
0.734684
0.816765
0.92545
1.056196
1.158067
1.231713
1.204786
1.121731
1.023104
0.901442
0.778807
0.667851
0.613347
0.564358
0.526723
0.537105
0.590637
0.690886
