1.295626
1.315092
1.255397
1.135033
0.99131
0.861537
0.886843
1.041272
1.201866
1.400742
1.512996
1.451354
1.309901
1.232687
1.240797
1.338127
1.546088
1.821206
2.038575
2.137852
2.136878
2.088862
2.012945
1.920158
1.797847
1.678131
1.596699
1.55355
1.58502
1.679754
1.813095
1.936379
2.019434
2.04993
2.01327
1.931188
1.800767
1.638875
1.48769
1.34202
1.192782
1.064307
0.996176
0.990012
1.081826
1.263183
1.464331
1.659314
1.816664
1.89907
1.916264
1.870195
1.747884
1.494503
1.137628
0.798597
0.591934
0.535159
0.65163
0.943943
1.252153
1.477633
1.642768
1.740422
1.766701
1.748209
1.710899
1.674887
1.654124
1.569122
1.412097
1.244366
1.111025
1.072417
1.126922
1.185644
1.245664
1.295302
1.298871
1.30763
1.376734
1.472766
1.588913
1.658017
1.649581
1.556145
1.379005
1.19343
1.078257
1.03673
1.098372
1.26805
1.444865
1.549981
1.621356
1.730365
1.864355
2.025598
2.167375
2.241021
2.255945
2.185867
2.058041
1.870844
1.628493
1.352726
1.1253
0.995527
0.975412
1.0536
1.229442
1.45622
1.719983
1.921131
2.064854
2.17289
2.22707
2.198196
2.103786
1.946437
1.671967
1.281027
0.860564
0.5118
0.327847
0.405711
0.623729
0.954
1.348833
1.698246
1.936704
2.048957
2.089836
2.082374
2.005808
1.859489
1.590535
1.191808
0.829094
0.590961
0.464757
0.428096
0.498822
0.747986
1.009153
1.237553
1.50456
1.835481
2.16997
2.380851
2.441196
2.382149
2.246536
2.046362
1.808878
1.571393
1.358891
1.169423
1.008504
0.932263
0.953351
1.076959
1.281027
1.534408
1.807904
2.035655
2.179703
2.221555
2.175486
2.062583
1.864031
1.625574
1.386143
1.179155
1.027321
0.968924
1.024077
1.161636
1.370246
1.600268
1.814068
1.975636
2.080103
2.128119
2.103137
2.011323
1.851703
1.634009
1.355322
1.010451
0.651305
0.299621
0.118589
0.04916
0.030343
0.477734
1.164232
1.746587
2.174837
2.452551
2.526521
2.403886
2.205658
1.9672
1.690784
1.353375
0.940374
0.53743
0.26588
0.218189
0.395978
0.793406
1.296275
1.776434
2.147909
2.318885
2.323102
2.225448
2.077507
1.934108
1.771243
1.608379
1.477957
1.39328
1.34202
1.349807
1.414368
1.486392
1.579829
1.688513
1.749182
1.676185
1.505534
1.275512
1.044192
0.969573
1.032512
1.204786
1.435781
1.598646
1.73296
1.769621
1.729392
1.688189
1.689811
1.741396
1.767999
1.750155
1.731987
1.71025
1.671643
1.61357
1.535706
1.409178
1.19927
0.955946
0.771669
0.690237
0.707756
0.863483
1.082475
1.366353
1.691109
1.917562
1.993155
1.99575
2.008079
1.980826
1.895825
1.797522
1.663208
1.487366
1.30244
1.129842
0.990985
0.91669
0.935507
1.063009
1.318661
1.608703
1.865004
2.031438
2.103137
2.10184
2.026571
1.919184
1.823153
1.71609
1.594753
1.467575
1.321257
1.144117
0.99942
0.914744
0.851804
0.845964
0.908579
1.045165
1.255072
1.518187
1.755022
1.958441
2.068099
2.019434
1.851378
1.619734
1.384845
1.184022
1.02797
0.951729
0.950107
0.962435
1.037703
1.137304
1.252153
1.357593
1.473739
1.645039
1.834832
1.973365
2.043442
2.005808
1.898421
1.760862
1.624276
1.533435
1.471793
1.362784
1.221332
1.047436
0.82293
0.628919
0.595179
0.747013
1.032512
1.331963
1.610325
1.837103
1.929242
1.914642
1.867924
1.80466
1.745938
1.694029
1.686242
1.749182
1.840347
1.942868
2.038575
2.098595
2.103137
2.053499
1.932811
1.751778
1.57626
1.41372
1.254424
1.130491
1.069822
1.094154
1.169423
1.306333
1.504236
1.707979
1.863707
1.934433
1.906207
1.737827
1.418586
1.070146
0.774589
0.529968
0.437829
0.552354
0.813197
1.090261
1.31347
1.515916
1.804011
2.097298
2.247834
2.294552
2.284819
2.20144
2.005159
1.758591
1.517862
1.297249
1.172667
1.152552
1.188564
1.263183
1.367326
1.395876
1.338127
1.288813
1.258317
1.219061
1.158067
1.080853
0.973466
0.905335
0.968924
1.088963
1.235282
1.417937
1.557767
1.651528
1.709277
1.749182
1.778381
1.822504
1.906856
2.02138
2.141096
2.230639
2.279628
2.281575
2.233559
2.144989
2.011647
1.854622
1.676509
1.48769
1.347536
1.282325
1.280054
1.314443
1.393605
1.506183
1.633035
1.752102
1.852351
1.910749
1.903287
1.841321
1.682349
1.368948
0.98255
0.641572
0.408955
0.359641
0.544892
0.799246
1.074364
1.361162
1.588264
1.740422
1.828992
1.878306
1.88739
1.815366
1.65899
1.417288
1.034783
0.56306
0.222082
0.089065
0.037481
0.01769
0.191586
0.854724
1.482499
1.994453
2.409726
2.700741
2.854847
2.832137
2.679004
2.453848
2.191383
1.929242
1.680078
1.424101
1.205434
1.096101
1.123029
1.268374
1.487041
1.729392
1.954547
2.130714
2.251727
2.314343
2.291957
2.211822
2.080752
1.89031
1.677483
1.469522
1.281027
1.147361
1.118162
1.165529
1.231713
1.335532
1.457518
1.575935
1.691758
1.796874
1.868249
1.873764
1.774488
1.55647
1.194728
0.721058
0.299946
0.118589
0.049485
0.022232
0.018015
0.482925
1.087017
1.614867
1.965903
2.194952
2.379229
2.511922
2.533334
2.436654
2.233235
1.993155
1.778705
1.611947
1.471468
1.357917
1.321257
1.362459
1.488663
1.669696
1.875386
2.036629
2.118061
2.113519
2.039549
1.929566
1.780652
1.593455
1.392956
1.220683
1.129193
1.072742
1.094803
1.214519
1.372192
1.547385
1.71609
1.845863
1.884795
1.833534
1.650879
1.297897
0.905335
0.589663
0.418039
0.520884
0.850182
1.229442
1.572691
1.773514
1.838725
1.845863
1.826721
1.812122
1.720956
1.523053
1.329043
1.196675
1.153525
1.260588
1.456869
1.735556
1.908154
1.926322
1.902963
1.853649
1.816664
1.790709
1.786492
1.80466
1.816339
1.820557
1.831912
1.859813
1.868573
1.843267
1.780652
1.669047
1.529542
1.401067
1.319959
1.293355
1.322879
1.385818
1.459464
1.539924
1.600917
1.652501
1.716739
1.785194
1.822828
1.816664
1.780328
1.660288
1.425399
1.112647
0.835907
0.658443
0.647736
0.864132
1.214843
1.615841
1.945463
2.14726
2.250105
2.276708
2.246861
2.144665
1.981475
1.781625
1.552252
1.328718
1.135033
0.995852
0.920583
0.857644
0.79957
0.716192
0.693481
0.714894
0.852128
1.131788
1.477308
1.821855
2.111248
2.277357
2.300392
2.166726
1.923402
1.658017
1.426697
1.249233
1.154499
1.169423
1.291084
1.476659
1.676185
1.858191
2.031113
2.190085
2.254647
2.228044
2.179054
2.080752
1.905558
1.71317
1.54479
1.425399
1.369921
1.400742
1.466278
1.515267
1.57334
1.635631
1.683647
1.705708
1.707006
1.693704
1.676185
1.646337
1.592481
1.531164
1.465629
1.399445
1.356944
1.325474
1.306333
1.304386
1.346887
1.437079
1.572691
1.759239
1.931837
2.020732
1.939624
1.663856
1.304062
0.941023
0.623729
0.432314
0.316816
0.281453
0.378783
0.496551
0.706459
1.083773
1.509427
1.855596
2.122279
2.322129
2.402588
2.349706
2.182623
1.884146
1.531164
1.248584
1.089612
1.065929
1.127246
1.315741
1.584371
1.812446
1.986991
2.133634
2.251078
2.344839
2.395775
2.335431
2.122603
1.782599
1.368299
0.980928
0.709703
0.650981
0.738577
0.906308
1.120109
1.297897
1.496125
1.732312
1.946437
2.11579
2.250754
2.340946
2.351652
2.299419
2.193978
2.03014
1.828343
1.631413
1.467575
1.315092
1.184022
1.076311
0.993256
1.004287
1.103238
1.267401
1.498721
1.753724
1.940921
2.012945
1.991208
1.907829
1.797522
1.654124
1.501316
1.297249
1.066578
0.890736
0.799895
0.831365
1.049058
1.312821
1.562309
1.771243
1.909127
1.971093
1.967849
1.923726
1.83029
1.681051
1.485419
1.247611
0.918637
0.59453
0.392733
0.372618
0.561113
0.949133
1.394578
1.753724
1.910749
1.912371
1.854622
1.829641
1.818286
1.84197
1.948383
1.960387
1.850405
1.707006
1.54771
1.398147
1.30244
1.294004
1.37349
1.545763
1.766053
1.958765
2.075236
2.094702
2.054473
1.95909
1.816339
1.667425
1.516889
1.369921
1.250855
1.184995
1.155148
1.170396
1.240797
1.345913
1.470171
1.612272
1.771243
1.915291
2.016838
2.039224
1.950005
1.797847
1.580478
1.321257
1.00234
0.663958
0.444318
0.387218
0.512124
0.832662
1.249233
1.641471
1.95617
2.149531
2.16997
2.085618
1.955521
1.748533
1.521106
1.330016
1.163583
1.027646
0.996825
1.029268
1.0682
1.172667
1.332612
1.514618
1.643417
1.692731
1.528893
1.141521
0.710027
0.352504
0.173093
0.313896
0.679855
1.249233
1.748858
2.06453
2.218635
2.260487
2.263731
2.275086
2.294552
2.302339
2.286441
2.226097
2.120332
1.982773
1.78195
1.526297
1.243393
0.934858
0.648385
0.488116
0.522181
0.721058
1.101616
1.508129
1.854622
2.11871
2.240697
2.263731
2.205982
2.115466
1.997697
1.823153
1.640173
1.476659
1.337154
1.227171
1.177858
1.180129
1.221656
1.323528
1.466926
1.625249
1.788763
1.946112
2.051553
2.079778
2.056419
1.969147
1.828343
1.672941
1.530839
1.419559
1.3391
1.305035
1.244042
1.111349
0.981577
0.895278
0.840449
0.898522
1.126598
1.39036
1.592157
1.743342
1.814068
1.808878
1.720956
1.589237
1.451678
1.357917
1.341371
1.353051
1.379979
1.439025
1.547061
1.646662
1.680727
1.6246
1.488988
1.320283
1.160338
1.015317
0.89982
0.845315
0.826498
0.781402
0.783349
0.901118
1.059765
1.234309
1.42183
1.634658
1.823477
1.9672
2.043117
2.018461
1.900367
1.721281
1.479579
1.23074
1.058467
0.962111
1.013046
1.215492
1.462709
1.691433
1.901341
2.07329
2.198196
2.272815
2.313045
2.300068
2.254323
2.168673
2.010999
1.819908
1.628169
1.460762
1.303413
1.15969
1.072417
1.038028
1.043543
1.052952
1.078257
1.135033
1.233984
1.379654
1.538301
1.709926
1.874088
1.860462
1.700842
1.530191
1.377383
1.246962
1.174938
1.108754
0.94524
0.739551
0.576362
0.460539
0.465081
0.635408
0.906308
1.234958
1.568798
1.785518
1.955521
2.066476
2.047011
1.958765
1.860138
1.801091
1.776434
1.782923
1.782274
1.701491
1.566203
1.419884
1.272916
1.191159
1.229767
1.359215
1.468873
1.531813
1.598321
1.594104
1.518187
1.383547
1.191808
1.023753
0.971519
1.070146
1.333909
1.628493
1.925349
2.158291
2.193978
2.112221
1.992182
1.824126
1.660937
1.53895
1.444541
1.372517
1.355646
1.382574
1.420208
1.482175
1.544466
1.585344
1.595726
1.583397
1.549332
1.487041
1.461087
1.471468
1.485095
1.500667
1.511049
1.493205
1.461411
1.449083
1.447785
1.446163
1.432212
1.394578
1.300817
1.109727
0.872892
0.652603
0.544567
0.648061
0.819685
1.063333
1.363757
1.589886
1.700517
1.739774
1.755995
1.766701
1.797198
1.812122
1.816988
1.808229
1.759239
1.674563
1.566851
1.429292
1.322879
1.271294
1.268699
1.337478
1.416315
1.43351
1.418586
1.428319
1.466278
1.481526
1.434808
1.382899
1.358242
1.377059
1.453949
1.530191
1.563283
1.486392
1.315417
1.092857
0.904037
0.839151
0.915717
1.147686
1.423777
1.654772
1.825748
1.832885
1.668723
1.449407
1.257992
1.171694
1.264805
1.439025
1.601241
1.709601
1.761835
1.735556
1.683971
1.65607
1.678131
1.737503
1.832561
1.943517
2.051877
2.139798
2.194952
2.200467
2.149207
2.053175
1.919509
1.752102
1.583073
1.43643
1.31931
1.238526
1.218087
1.234958
1.283947
1.389387
1.516564
1.636929
1.714792
1.731014
1.696624
1.597024
1.370895
0.972492
0.530941
0.215918
0.087119
0.039103
0.309354
0.741173
1.160663
1.447785
1.615192
1.662559
1.633684
1.561012
1.457518
1.359539
1.348509
1.438052
1.511374
1.505209
1.403662
1.267725
1.157743
1.060413
0.992283
0.996825
1.098048
1.313795
1.594428
1.836454
2.008079
2.112221
2.065503
1.902638
1.718685
1.530515
1.408853
1.365704
1.34786
1.365379
1.438052
1.522729
1.585668
1.655421
1.730689
1.815366
1.910425
2.000941
2.07848
2.128443
2.112546
2.011647
1.851054
1.672616
1.521106
1.399445
1.304386
1.264157
1.261561
1.293355
1.390036
1.520133
1.644391
1.752426
1.834832
1.852676
1.78195
1.625898
1.391009
1.121731
0.860239
0.646763
0.485196
0.420634
0.527048
0.746364
1.010775
1.282
1.505858
1.671967
1.813095
1.907829
1.857867
1.636929
1.294978
0.934534
0.64579
0.444318
0.339202
0.408955
0.576362
0.76291
0.958542
1.223278
1.572042
1.863707
2.071343
2.20144
2.254323
2.256269
2.205333
2.093729
1.943841
1.795576
1.627845
1.437079
1.248259
1.101616
0.957569
0.812548
0.764532
0.812548
0.974439
1.309577
1.703437
2.044091
2.278331
2.296823
2.123901
1.884146
1.675212
1.503263
1.368299
1.299844
1.302764
1.351753
1.445189
1.557118
1.677807
1.80174
1.927944
2.029491
2.055446
1.992506
1.855596
1.647635
1.422479
1.225874
1.076635
0.968599
0.933236
0.966328
1.046138
1.173316
1.321581
1.495152
1.683971
1.830614
1.924375
1.938975
1.825099
1.565229
1.191484
0.815143
0.517639
0.358668
0.350233
0.496876
0.767776
1.111998
1.469846
1.763457
1.914318
1.834183
1.589886
1.278432
0.980928
0.858617
0.855373
0.945889
1.132113
1.279405
1.344616
1.397174
1.470495
1.565229
1.71609
1.934757
2.149856
2.294228
2.360412
2.366576
2.308178
2.18457
1.924051
1.554523
1.191808
0.909877
0.739875
0.689264
0.703539
0.812872
1.025375
1.31347
1.610974
1.882524
2.136229
2.305907
2.362359
2.323102
2.23291
2.086267
1.895825
1.700193
1.513969
1.364406
1.257019
1.218736
1.240797
1.304711
1.41372
1.530515
1.615841
1.655097
1.652501
1.584046
1.459789
1.321905
1.198297
1.105834
1.028295
0.979306
0.970221
0.99131
1.051654
1.138602
1.248584
1.368624
1.481526
1.560687
1.59897
1.531488
1.397822
1.279405
1.184022
1.10259
1.069173
1.115242
1.201217
1.281676
1.366028
1.464655
1.563931
1.69046
1.8105
1.890634
1.939299
1.966551
1.943192
1.815691
1.549008
1.191808
0.841422
0.506284
0.269774
0.19483
0.336931
0.714569
1.091559
1.409502
1.667101
1.887714
2.08432
2.250429
2.353923
2.322778
2.060961
1.60773
1.107132
0.670771
0.382027
0.352828
0.545865
0.830391
1.146388
1.40788
1.634009
1.849756
2.02138
2.132985
2.207929
2.215066
2.142069
2.058041
1.962658
1.82445
1.688513
1.549332
1.426697
1.328718
1.286867
1.304062
1.372841
1.503912
1.667425
1.828668
1.961036
2.034682
2.009701
1.895825
1.740747
1.554847
1.361811
1.213221
1.140873
1.172667
1.203163
1.190186
1.192133
1.244366
1.348509
1.486068
1.627845
1.765079
1.882199
1.939624
1.918536
1.83029
1.65023
1.410475
1.162934
0.918312
0.701592
0.576037
0.562735
0.650656
0.855048
1.117189
1.357917
1.540897
1.681051
1.756644
1.729392
1.631413
1.443243
1.149957
0.810926
0.48617
0.275289
0.274316
0.471246
0.747661
1.063333
1.403662
1.682998
1.935082
2.170944
2.304934
2.268598
2.014243
1.635306
1.246637
0.905011
0.686993
0.728844
0.914419
1.186942
1.518187
1.751778
1.904909
2.061934
2.183272
2.237452
2.221231
2.143691
1.998995
1.766701
1.466926
1.124651
0.785295
0.510826
0.410901
0.471895
0.660389
0.979306
1.313146
1.649906
1.954547
2.175161
2.304285
2.353274
2.338999
2.25854
2.136878
1.983746
1.797198
1.605783
1.426372
1.280054
1.179804
1.158392
1.209652
1.301791
1.443243
1.577558
1.665803
1.719983
1.7388
1.694678
1.57334
1.380952
1.114269
0.826823
0.570846
0.430043
0.471246
0.626973
0.852453
1.162285
1.488014
1.762484
1.938975
2.034033
2.071019
2.031762
1.87052
1.629467
1.354673
1.057169
0.797299
0.613347
0.504013
0.478383
0.564682
0.714245
0.872243
1.035108
1.246313
1.535057
1.8105
1.983422
2.050579
2.062908
2.07329
2.022029
1.845538
1.598321
1.28784
0.943618
0.638328
0.499796
0.569224
0.790162
1.122704
1.515591
1.891932
2.178406
2.367549
2.441844
2.426921
2.347435
2.173863
1.950005
1.727445
1.522404
1.353051
1.238526
1.21095
1.250206
1.343642
1.492881
1.652826
1.798496
1.916264
1.99575
2.023327
1.99283
1.9101
1.76735
1.611947
1.450056
1.299844
1.176884
1.091883
1.058467
1.020508
0.946214
0.856995
0.761612
0.693806
0.70581
0.845315
1.075337
1.326123
1.477957
1.508129
1.451029
1.360188
1.270645
1.216465
1.219061
1.223927
1.166178
1.0682
0.977359
0.93421
0.966328
1.106807
1.308604
1.534408
1.7959
1.915291
1.873439
1.726472
1.542195
1.389387
1.221007
1.009478
0.817739
0.707756
0.745715
0.88814
1.12822
1.41372
1.746911
2.02138
2.148233
2.143367
2.04474
1.911398
1.778705
1.665803
1.585344
1.571069
1.611299
1.653475
1.713495
1.792007
1.885443
1.954223
1.988937
1.992506
1.948059
1.871493
1.775785
1.642444
1.50456
1.375112
1.266428
1.192133
1.168774
1.195053
1.255721
1.375761
1.520782
1.65899
1.760537
1.805633
1.789087
1.683647
1.46498
1.160014
0.847586
0.570846
0.399871
0.358992
0.356721
0.38884
0.421283
0.478708
0.648385
0.880029
1.069822
1.201866
1.218736
1.113945
1.051978
1.095128
1.195701
1.334234
1.434483
1.447785
1.464007
1.473091
1.4679
1.48769
1.528568
1.584695
1.628818
1.665154
1.6963
1.703437
1.679754
1.66191
1.640822
1.597997
1.571069
1.567825
1.602539
1.637578
1.655746
1.684945
1.725174
1.779679
1.815366
1.842618
1.854947
1.834508
1.772541
1.66483
1.537653
1.390036
1.234958
1.120433
1.067551
1.06528
1.099021
1.180778
1.298871
1.438376
1.605459
1.771568
1.916913
2.017487
2.062908
2.031113
1.922429
1.755022
1.522729
1.270645
1.048085
0.861861
0.658118
0.485521
0.413497
0.38008
0.428421
0.596801
0.834285
1.144766
1.540897
1.918211
2.220257
2.396424
2.384744
2.199818
1.934757
1.679429
1.469522
1.317363
1.201217
1.097074
1.015317
0.995203
1.022131
1.124327
1.289462
1.430266
1.521755
1.559389
1.539924
1.483472
1.380303
1.261886
1.156121
1.057169
0.991958
0.949133
0.927072
0.969248
1.08215
1.254424
1.501316
1.746587
1.908803
1.974013
1.952276
1.871493
1.706033
1.499694
1.311524
1.172991
1.099345
1.099345
1.177209
1.29368
1.425399
1.584046
1.752102
1.908803
2.011323
2.074912
2.090809
2.072641
1.974662
1.783896
1.560687
1.335856
1.136655
1.022131
0.95984
0.909877
0.886518
0.962111
1.113945
1.277783
1.432212
1.563931
1.655746
1.694353
1.728094
1.719659
1.648933
1.50456
1.311848
1.137628
0.990985
0.820983
0.587392
0.338229
0.176662
0.184448
0.393382
0.741822
1.172342
1.541221
1.841645
1.982773
1.91594
1.769297
1.599295
1.427346
1.282649
1.175911
1.081177
1.01694
1.028619
1.155472
1.377708
1.659314
1.943192
2.16997
2.255296
2.224799
2.106057
1.933784
1.751129
1.587615
1.455247
1.363433
1.334883
1.358891
1.412746
1.505858
1.614543
1.731663
1.856569
1.963307
2.012621
1.989262
1.904261
1.767675
1.574962
1.375437
1.185644
1.036406
0.962111
0.974439
1.033161
1.151579
1.32515
1.505858
1.677807
1.808229
1.877008
1.839374
1.682998
1.425075
1.0682
0.688615
0.381054
0.203914
0.215594
0.418363
0.711325
0.949133
1.162285
1.38517
1.605459
1.825748
2.010999
2.120657
2.065828
1.840347
1.470171
0.955622
0.435883
0.170498
0.068951
0.030668
0.270098
0.864132
1.452003
1.897123
2.160886
2.314991
2.399993
2.441196
2.44444
2.397722
2.309801
2.182948
2.009052
1.806282
1.603837
1.431888
1.288489
1.187591
1.052627
0.886843
0.780105
0.750581
0.854399
1.134708
1.442918
1.677158
1.831588
1.889012
1.831588
1.718361
1.59021
1.464007
1.360188
1.280703
1.244042
1.251504
1.299195
1.390685
1.512671
1.629142
1.735231
1.808229
1.824775
1.79298
1.721281
1.614867
1.482175
1.337803
1.206408
1.087341
1.005585
1.002665
1.052627
1.181426
1.358891
1.503263
1.549008
1.534084
1.491583
1.40788
1.319959
1.198946
1.07404
1.002665
0.980928
0.995527
1.026024
1.111025
1.224251
1.31347
1.394578
1.482499
1.594104
1.718037
1.835481
1.866951
1.758591
1.525973
1.152876
0.673691
0.267827
0.10626
0.044618
0.020286
0.04332
0.50596
1.112647
1.645364
2.048308
2.337053
2.50446
2.581675
2.563507
2.468123
2.318236
2.097298
1.842294
1.525
1.087666
0.640275
0.327847
0.206185
0.327522
0.712298
1.212896
1.683322
2.061934
2.306881
2.399993
2.378256
2.28709
2.148558
1.974987
1.797847
1.637253
1.501641
1.397822
1.342345
1.330341
1.367001
1.463033
1.578206
1.69338
1.796549
1.879279
1.903612
1.873439
1.805309
1.685918
1.538626
1.378032
1.198297
1.025375
0.904686
0.849208
0.842071
0.906957
1.019535
1.138277
1.214194
1.224251
1.206083
1.18532
1.199919
1.255397
1.296924
1.312172
1.24534
1.086692
0.904686
0.790811
0.755772
0.808006
0.967302
1.172991
1.412746
1.645039
1.829317
1.914318
1.878306
1.730365
1.488339
1.220683
0.97671
0.83396
0.823903
0.869323
1.007856
1.191159
1.330665
1.45914
1.59605
1.722579
1.821855
1.847485
1.735556
1.502614
1.191484
0.844342
0.545541
0.324278
0.222082
0.280804
0.467677
0.792757
1.153201
1.51916
1.851703
2.145313
2.374038
2.521655
2.573564
2.528468
2.422379
2.271193
2.046037
1.80174
1.586317
1.400418
1.261886
1.22198
1.257668
1.341047
1.473091
1.61876
1.731663
1.773514
1.759239
1.705708
1.622654
1.522404
1.427021
1.337478
1.23074
1.087666
0.898847
0.696077
0.545541
0.50596
0.572793
0.68018
0.849533
1.026348
1.132762
1.254099
1.387116
1.492557
1.589886
1.575935
1.49645
1.419884
1.337803
1.194404
1.024402
0.877758
0.719111
0.648061
0.714245
0.902415
1.207057
1.553874
1.858191
2.051553
2.115466
2.061286
1.920807
1.717712
1.488339
1.282649
1.113296
1.024726
1.033486
1.12238
1.314443
1.547385
1.759239
1.923726
2.032087
2.084969
2.075885
2.011647
1.89323
1.739125
1.577558
1.426048
1.288489
1.189213
1.162609
1.185969
1.257019
1.390036
1.537004
1.664505
1.758915
1.82153
1.826072
1.776434
1.692082
1.552901
1.378032
1.202515
1.047761
0.901766
0.75415
0.587717
0.376512
0.169524
0.067977
0.028721
0.013473
0.007957
0.154925
0.660065
1.106807
1.492232
1.876684
2.064205
2.027869
1.896474
1.739774
1.600268
1.491259
1.438376
1.428319
1.4108
1.395876
1.396525
1.362784
1.370895
1.415991
1.472766
1.529217
1.583722
1.56458
1.507805
1.433185
1.352402
1.33618
1.353051
1.404311
1.499694
1.610325
1.723876
1.824775
1.901665
1.92178
1.889661
1.823801
1.675536
1.424426
1.091234
0.698672
0.344717
0.144868
0.099447
0.275938
0.636706
1.059765
1.420208
1.676509
1.852351
1.962658
2.00451
1.994128
1.937353
1.820233
1.671643
1.496774
1.313146
1.13925
1.022779
0.987416
1.029268
1.169747
1.356295
1.522729
1.630116
1.631089
1.527271
1.386467
1.26805
1.168125
1.096425
1.059116
1.08507
1.13925
1.122704
1.018562
0.854075
0.702241
0.650332
0.698997
0.811899
0.993905
1.182075
1.265454
1.259615
1.241122
1.187591
1.111349
1.004287
0.852453
0.646763
0.433287
0.22922
0.131566
0.230842
0.467677
0.779456
1.112647
1.449083
1.742045
1.932162
2.0389
2.068748
2.02138
1.939948
1.811149
1.617787
1.400742
1.225549
1.106483
1.063009
1.143792
1.344616
1.586966
1.811473
1.9818
2.072965
2.038575
1.925024
1.766377
1.589237
1.406907
1.234633
1.092532
0.981577
0.937778
0.949458
0.991958
1.069822
1.176884
1.288813
1.384196
1.441621
1.466926
1.492232
1.476659
1.36765
1.222629
1.086368
0.956271
0.839151
0.727547
0.664282
0.633786
0.655523
0.734684
0.834285
0.941347
1.102914
1.269996
1.353375
1.343642
1.274214
1.183698
1.097723
1.01402
0.917988
0.835582
0.751879
0.606209
0.471246
0.427123
0.515044
0.74831
1.062684
1.429941
1.838076
2.074263
2.142069
2.10703
1.992506
1.817313
1.615516
1.414693
1.217114
1.007207
0.782051
0.577335
0.505311
0.580579
0.79146
1.088963
1.427021
1.717063
1.930539
2.017812
1.966227
1.821206
1.630764
1.44746
1.283947
1.156445
1.090586
1.044841
0.993256
0.922854
0.84856
0.806059
0.798922
0.88522
1.067875
1.275836
1.452003
1.547385
1.518511
1.412097
1.266103
1.12238
1.039001
1.028944
1.073066
1.178507
1.319959
1.450056
1.536355
1.588913
1.617787
1.587615
1.481526
1.31931
1.144441
0.97379
0.854724
0.795353
0.787891
0.845315
0.931939
1.03089
1.132437
1.22198
1.286542
1.258966
1.129842
0.949458
0.8398
0.86543
0.935183
1.031539
1.213545
1.37933
1.368948
1.247611
1.11946
1.010127
0.883923
0.723005
0.614644
0.584797
0.634435
0.830067
1.122055
1.388738
1.558092
1.569447
1.509427
1.450705
1.422155
1.369921
1.298871
1.238202
1.263832
1.380628
1.53311
1.702139
1.871817
2.021056
2.11871
2.136554
2.090809
1.963956
1.738151
1.466926
1.228469
1.050681
0.960164
0.962435
1.004611
1.085395
1.205759
1.35662
1.544466
1.722903
1.849756
1.902314
1.889012
1.826072
1.703113
1.545439
1.386143
1.248259
1.140873
1.074688
1.056196
1.076311
1.121407
1.185969
1.271294
1.362784
1.425399
1.486717
1.519484
1.513645
1.483472
1.408204
1.326772
1.241771
1.127895
0.996825
0.90566
0.836231
0.690237
0.513422
0.404088
0.435558
0.623404
0.933236
1.252801
1.568149
1.800118
1.897447
1.927944
1.914967
1.884795
1.806282
1.698571
1.611299
1.511374
1.39036
1.305035
1.253775
1.262534
1.369921
1.571069
1.786492
1.974662
2.103786
2.099244
1.972716
1.792656
1.624276
1.462384
1.334558
1.269347
1.238526
1.254748
1.342993
1.508129
1.697597
1.863058
1.986666
2.000941
1.926322
1.794927
1.599295
1.371543
1.130166
0.904037
0.670771
0.497849
0.43426
0.502067
0.704188
0.963408
1.266752
1.580478
1.851378
1.996399
2.052526
2.0389
1.93865
1.757617
1.541546
1.326447
1.138277
0.995203
0.950107
1.017588
1.143792
1.31347
1.498396
1.646662
1.754373
1.83029
1.842943
1.800118
1.739125
1.620383
1.43351
1.174289
0.865754
0.593881
0.455673
0.498498
0.656496
0.888465
1.176884
1.486068
1.755995
1.971093
2.117088
2.18749
2.182948
2.087565
1.885119
1.617787
1.342345
1.138602
1.033486
1.040623
1.149957
1.300493
1.477957
1.652177
1.815691
1.951303
2.050579
2.096324
2.034358
1.83613
1.547385
1.225549
0.926099
0.640599
0.368076
0.157196
0.065706
0.069924
0.348611
0.82293
1.340074
1.824775
2.116439
2.186841
2.104111
1.953899
1.763133
1.488339
1.186942
0.936481
0.766803
0.710352
0.784322
0.928694
1.094803
1.329367
1.562634
1.733934
1.840347
1.89323
1.898096
1.840672
1.733285
1.605459
1.39036
1.081502
0.766803
0.538079
0.443345
0.576686
0.873216
1.209652
1.585668
1.913669
2.149531
2.292606
2.378905
2.406157
2.357168
2.253025
2.096649
1.892257
1.673265
1.475686
1.316714
1.213221
1.184995
1.197972
1.254748
1.379979
1.533435
1.686567
1.811473
1.894852
1.923078
1.89323
1.816339
1.672616
1.472766
1.246637
0.988065
0.675313
0.374241
0.190612
0.161089
0.31195
0.516342
0.711001
0.901766
1.076635
1.246637
1.404311
1.545114
1.673914
1.763133
1.786816
1.736205
1.671318
1.594428
1.522729
1.457518
1.404635
1.373166
1.407555
1.538301
1.750155
1.988613
2.173539
2.2527
2.268922
2.199169
2.049606
1.859164
1.631413
1.378681
1.149308
1.010451
0.972168
1.052303
1.26805
1.575935
1.888363
2.12455
2.259838
2.271193
2.196249
2.104435
1.979529
1.822179
1.669696
1.54479
1.460113
1.424101
1.458491
1.543492
1.670345
1.835157
2.010025
2.145313
2.235506
2.276708
2.223826
2.088538
1.875386
1.566203
1.247935
0.989039
0.815468
0.796002
0.918637
1.131464
1.42767
1.727445
1.97888
2.167699
2.285468
2.309801
2.20728
1.992506
1.6963
1.332612
0.992932
0.732089
0.541323
0.472868
0.529319
0.756745
1.007531
1.21679
1.470171
1.749182
1.985044
2.183272
2.304934
2.317587
2.254323
2.154073
1.980502
1.716739
1.411449
1.14217
0.940374
0.838502
0.857644
0.893007
0.946538
1.063333
1.221656
1.36765
1.485095
1.585344
1.623303
1.580478
1.487366
1.359864
1.240149
1.158067
1.152876
1.179804
1.215816
1.239824
1.237229
1.251504
1.272267
1.312172
1.348509
1.394903
1.412422
1.380628
1.356944
1.333909
1.278107
1.233336
1.245988
1.291409
1.324501
1.352402
1.387116
1.434808
1.514618
1.597024
1.630764
1.590535
1.433834
1.155796
0.843044
0.59453
0.462162
0.515693
0.685046
0.915393
1.157094
1.348184
1.452976
1.506831
1.549981
1.611947
1.655097
1.649906
1.58502
1.457518
1.285245
1.114918
0.964057
0.838178
0.741497
0.714245
0.788215
0.898522
1.00818
1.118811
1.221332
1.299844
1.319634
1.264157
1.079231
0.830716
0.648385
0.594854
0.682451
0.861861
1.01694
1.132437
1.189862
1.198297
1.23658
1.309253
1.354024
1.394254
1.481526
1.565878
1.615516
1.62168
1.584371
1.49645
1.412746
1.38225
1.369921
1.381601
1.382574
1.359215
1.30244
1.252153
1.24534
1.269023
1.332612
1.436105
1.545114
1.631089
1.702464
1.753075
1.750155
1.709277
1.630116
1.50456
1.359864
1.220358
1.101292
1.0111
0.971519
0.980603
1.002989
1.046463
1.08215
1.09091
1.088639
1.09675
1.099994
1.105834
1.123678
1.130491
1.12822
1.108105
1.062036
0.983848
0.847262
0.6831
0.536132
0.443993
0.423879
0.473192
0.585121
0.743768
0.946538
1.139575
1.305035
1.496774
1.623627
1.617463
1.506183
1.336829
1.137304
0.960164
0.832987
0.701592
0.557544
0.506609
0.571819
0.798273
1.124651
1.485095
1.755346
1.901665
1.932486
1.833859
1.682998
1.5675
1.491908
1.433185
1.401067
1.387116
1.373814
1.39912
1.457518
1.538626
1.61876
1.681051
1.698246
1.64212
1.540897
1.408529
1.262859
1.146712
1.082475
1.057494
1.049707
1.068524
1.097074
1.142495
1.240149
1.369272
1.495476
1.592806
1.642444
1.59605
1.464655
1.31347
1.108105
0.83688
0.595503
0.439127
0.375538
0.445291
0.664931
0.92545
1.181102
1.392956
1.541546
1.622978
1.659314
1.660937
1.623951
1.560687
1.480553
1.382574
1.28784
1.214843
1.154823
1.106158
1.075013
1.046138
1.019211
0.976061
0.856346
0.727871
0.63995
0.604263
0.69997
0.880678
1.087017
1.333261
1.475686
1.4533
1.366677
1.2966
1.258317
1.251504
1.258641
1.280703
1.345589
1.448109
1.557767
1.649906
1.69046
1.570745
1.275512
0.897549
0.509853
0.215594
0.086794
0.051431
0.244468
0.470597
0.738902
0.974439
1.166178
1.394578
1.638226
1.862409
2.065179
2.21312
2.261785
2.220582
2.096324
1.884795
1.617138
1.232362
0.80249
0.4547
0.262312
0.271071
0.485845
0.865754
1.351753
1.790709
2.044091
2.142394
2.149856
2.096
2.005808
1.868249
1.689162
1.497099
1.325799
1.175262
1.054249
0.999745
0.993256
1.033486
1.129517
1.257343
1.386467
1.501641
1.586642
1.636604
1.611947
1.471793
1.204137
0.838502
0.480654
0.216242
0.087768
0.037805
0.053378
0.24025
0.524777
0.829418
1.109727
1.392956
1.633035
1.800767
1.874088
1.891283
1.87052
1.783572
1.650879
1.488988
1.305684
1.146388
1.060413
1.049058
1.105509
1.233336
1.392632
1.545114
1.671643
1.762808
1.813744
1.80466
1.750804
1.655097
1.508778
1.323203
1.11362
0.881652
0.658767
0.489738
0.417066
0.496551
0.721058
0.956595
1.162934
1.370895
1.555821
1.699868
1.76151
1.695326
1.461411
1.12238
0.734684
0.398249
0.173418
0.07187
0.145192
0.384622
0.696077
1.034783
1.330016
1.567825
1.748858
1.862084
1.888039
1.800767
1.582749
1.304386
1.039974
0.856346
0.877758
0.995852
1.11946
1.284596
1.434159
1.581451
1.72193
1.84716
1.925997
1.922429
1.822504
1.646013
1.410151
1.115242
0.855697
0.706134
0.669473
0.732413
0.821956
0.952702
1.156121
1.375112
1.559065
1.703762
1.813744
1.884795
1.917887
1.900692
1.828992
1.715766
1.557443
1.383223
1.213221
1.076311
0.986767
0.954
0.987092
1.050032
1.144117
1.265779
1.370895
1.423777
1.410151
1.330016
1.171694
0.983523
0.813845
0.670447
0.590312
0.555922
0.594205
0.701268
0.777834
0.808006
0.807032
0.790162
0.816765
0.954973
1.157419
1.361162
1.532462
1.641146
1.686242
1.671967
1.625249
1.574962
1.549981
1.527271
1.491259
1.491259
1.493854
1.465304
1.4108
1.207705
0.910202
0.669798
0.533861
0.570522
0.860564
1.226198
1.567176
1.773514
1.756644
1.622978
1.410151
1.1678
0.978008
0.843044
0.796651
0.90274
1.149308
1.461087
1.737178
1.917887
1.977907
1.937353
1.815366
1.631089
1.445514
1.291084
1.172018
1.080853
1.039325
1.072093
1.156445
1.298871
1.468873
1.649581
1.797198
1.891608
1.925997
1.908154
1.853974
1.766701
1.643093
1.497747
1.352402
1.202515
1.058142
0.960164
0.913446
0.926423
1.013046
1.135033
1.259615
1.374463
1.476335
1.549008
1.588588
1.606756
1.546737
1.414693
1.222954
0.98839
0.758043
0.628919
0.644817
0.772967
0.992607
1.264157
1.535706
1.682349
1.609676
1.362135
1.024077
0.717814
0.53743
0.535159
0.701268
1.001367
1.327096
1.502938
1.594104
1.671967
1.731987
1.765728
1.748533
1.666452
1.560038
1.463358
1.414368
1.388089
1.332287
1.275836
1.221656
1.172667
1.15093
1.144441
1.130166
1.112647
1.057494
0.943618
0.828445
0.760963
0.833636
1.077284
1.354024
1.564905
1.765728
1.889986
1.853325
1.733285
1.605134
1.505534
1.428968
1.384521
1.408204
1.464331
1.541546
1.661585
1.789736
1.892257
1.975636
2.021056
2.003212
1.94449
1.85008
1.698571
1.519484
1.352402
1.213221
1.111349
1.070795
1.089288
1.143792
1.249882
1.387441
1.526946
1.642444
1.726472
1.772866
1.759888
1.681376
1.500667
1.21095
0.865106
0.536456
0.267827
0.116642
0.144868
0.378783
0.695752
1.03965
1.31639
1.498072
1.628818
1.714143
1.711548
1.593779
1.2966
0.831689
0.374241
0.146165
0.059866
0.025477
0.043969
0.495578
1.020508
1.500667
1.939624
2.257891
2.458066
2.576159
2.627744
2.597896
2.504784
2.351977
2.087889
1.659314
1.165529
0.727222
0.415443
0.349584
0.582201
0.889114
1.284596
1.676834
1.948708
2.103137
2.179379
2.197547
2.159913
2.076858
1.939299
1.740098
1.518835
1.321905
1.183698
1.132113
1.160014
1.236904
1.335856
1.477308
1.625898
1.754049
1.857218
1.905234
1.898096
1.860462
1.793629
1.667101
1.495476
1.312497
1.134708
0.980928
0.876461
0.837853
0.843044
0.882625
0.904037
0.845964
0.761288
0.729169
0.774914
0.943943
1.236255
1.54479
1.703762
1.645688
1.419559
1.032512
0.553976
0.222082
0.089065
0.040401
0.333038
0.852777
1.447785
1.908803
2.208253
2.376634
2.435356
2.424325
2.331213
2.155371
1.944166
1.725499
1.532137
1.371219
1.29076
1.279405
1.304062
1.363433
1.416964
1.396849
1.310875
1.199919
1.103563
1.095452
1.245664
1.395876
1.441621
1.426372
1.374788
1.267401
1.135033
0.992932
0.869972
0.819036
0.87711
1.044516
1.316066
1.635306
1.958441
2.161535
2.224475
2.173215
2.023327
1.846512
1.675212
1.511698
1.361162
1.234958
1.144117
1.089288
1.102914
1.19927
1.373166
1.56458
1.748533
1.897772
1.964605
1.958765
1.902963
1.792007
1.641471
1.467575
1.269347
1.077933
0.95108
0.887816
0.893007
0.97087
1.095128
1.211923
1.31055
1.369597
1.378681
1.382574
1.391009
1.370246
1.319959
1.260912
1.200244
1.132762
1.046138
0.920583
0.769074
0.595827
0.39468
0.252579
0.209105
0.320061
0.605885
0.943943
1.348509
1.745938
1.933459
1.95325
1.895176
1.802713
1.689487
1.611623
1.59605
1.618112
1.646337
1.658666
1.651528
1.632387
1.624276
1.658017
1.699544
1.749182
1.765404
1.715441
1.623951
1.52792
1.450056
1.413395
1.435781
1.491583
1.574962
1.698571
1.819259
1.919184
1.988937
2.026247
2.005808
1.917887
1.763133
1.549008
1.326123
1.104861
0.919286
0.794055
0.738902
0.795677
0.921557
1.093505
1.302115
1.498721
1.641795
1.69922
1.656395
1.495152
1.279405
1.047761
0.854724
0.720734
0.607507
0.547812
0.581228
0.720085
0.92253
1.141846
1.347211
1.542519
1.698895
1.742369
1.59021
1.283298
0.951729
0.731764
0.662011
0.718463
0.884896
1.142495
1.387116
1.54187
1.668399
1.799793
1.932811
2.075885
2.179054
2.233883
2.256269
2.246536
2.203387
2.131687
2.028842
1.863707
1.687864
1.501641
1.31931
1.117838
0.872892
0.595827
0.372294
0.2688
0.311301
0.500445
0.839476
1.226522
1.623951
1.904585
2.044091
2.082374
1.984395
1.832885
1.683647
1.551928
1.454274
1.409178
1.419884
1.469197
1.56458
1.678456
1.797522
1.901665
1.976609
2.00159
1.948059
1.839699
1.683322
1.498721
1.321257
1.164556
1.040623
0.955622
0.940698
0.979954
1.080853
1.272916
1.482824
1.646337
1.713495
1.674563
1.514293
1.262859
0.977683
0.692832
0.426799
0.258743
0.238628
0.33758
0.60556
0.958542
1.273241
1.546412
1.769297
1.875386
1.825748
1.614218
1.341696
1.10259
0.971195
1.006882
1.100967
1.18532
1.263183
1.32515
1.344291
1.373166
1.41891
1.44227
1.472117
1.469846
1.412422
1.345913
1.338127
1.378357
1.478282
1.659639
1.780976
1.836779
1.846836
1.801416
1.716414
1.60773
1.505534
1.405284
1.294653
1.242095
1.261237
1.326447
1.449083
1.643417
1.831263
1.947086
1.982773
1.923402
1.815691
1.680078
1.531813
1.39036
1.278756
1.232687
1.2395
1.295626
1.404311
1.531488
1.651204
1.748209
1.80174
1.794278
1.750155
1.678456
1.550305
1.404635
1.268699
1.162934
1.099994
1.095777
1.146063
1.23074
1.356944
1.486068
1.561985
1.542195
1.44746
1.281027
1.08799
0.974764
0.922206
0.89398
0.899495
0.897549
0.87711
0.873541
0.912797
0.996176
1.126922
1.252801
1.317039
1.317039
1.270645
1.168774
1.030241
0.940374
0.933885
0.943943
1.034135
1.218412
1.416639
1.549656
1.570096
1.546088
1.552252
1.587615
1.680727
1.804984
1.899394
1.972716
2.033709
2.048308
2.025274
1.941246
1.746911
1.46206
1.167151
0.902091
0.735657
0.742146
0.852777
1.029592
1.277783
1.523702
1.743667
1.929891
2.071343
2.150829
2.154398
2.100542
2.000941
1.85592
1.695002
1.547061
1.422804
1.334234
1.300817
1.306333
1.349807
1.442918
1.54479
1.634009
1.71317
1.785843
1.818935
1.80758
1.747884
1.612272
1.42183
1.200568
0.867052
0.431341
0.168227
0.068626
0.02937
0.014122
0.238628
0.816116
1.359539
1.773514
2.059988
2.21896
2.253674
2.185219
2.004834
1.725823
1.381925
1.015317
0.678233
0.444318
0.362237
0.461513
0.748635
1.158392
1.577233
1.938975
2.200142
2.313369
2.280277
2.146287
1.889337
1.514942
1.112971
0.720734
0.374241
0.155898
0.065706
0.141623
0.461837
0.94232
1.455247
1.920158
2.271842
2.462608
2.504784
2.410375
2.221879
1.989262
1.74756
1.529866
1.427346
1.393929
1.367326
1.379654
1.415017
1.487041
1.608054
1.747884
1.859489
1.936379
1.983422
1.960387
1.88447
1.782599
1.624925
1.447136
1.278432
1.102914
0.929992
0.816116
0.770047
0.769398
0.838502
0.984172
1.142495
1.309901
1.482499
1.622978
1.703113
1.732636
1.713819
1.650879
1.568798
1.485743
1.401716
1.297897
1.14801
0.898522
0.605885
0.38884
0.337904
0.528021
0.876461
1.289138
1.716739
2.035007
2.177108
2.143042
1.974338
1.730689
1.442594
1.15093
0.889762
0.77978
0.744742
0.809628
1.019211
1.288489
1.589886
1.878306
2.060637
2.042144
1.837428
1.544141
1.204137
0.928694
0.798597
0.806384
0.889762
1.020184
1.152228
1.264157
1.38517
1.517538
1.581451
1.512347
1.354673
1.180453
1.060089
1.058467
1.126273
1.281027
1.465953
1.562958
1.539599
1.408853
1.269672
1.1678
1.11946
1.133086
1.225549
1.390036
1.549332
1.672941
1.776434
1.851703
1.918211
1.912047
1.83029
1.687864
1.52792
1.386792
1.28492
1.262859
1.314443
1.419884
1.572367
1.718685
1.838401
1.924051
1.962983
1.937677
1.86176
1.748209
1.587939
1.401067
1.222629
1.07112
0.964706
0.917988
0.920908
0.946538
1.018237
1.119136
1.212896
1.291733
1.331638
1.234633
1.048085
0.748635
0.351855
0.13773
0.056622
0.025152
0.012175
0.196452
0.687642
1.122704
1.410475
1.620058
1.773839
1.853649
1.8676
1.795576
1.626871
1.380303
1.114918
0.844991
0.641248
0.523155
0.473841
0.4547
0.520884
0.704188
0.962435
1.26221
1.611623
1.95909
2.250105
2.443791
2.527495
2.491483
2.363981
2.139149
1.79298
1.425724
1.112323
0.889438
0.847586
0.978008
1.170071
1.369597
1.580802
1.767675
1.902963
2.001915
2.065828
2.078156
2.019109
1.92178
1.789087
1.619085
1.438376
1.275512
1.145739
1.061711
1.057494
1.09967
1.157743
1.237878
1.315741
1.382574
1.422479
1.445838
1.430266
1.356295
1.237229
1.077933
0.90274
0.738577
0.615942
0.52575
0.433936
0.34342
0.288915
0.312274
0.454375
0.728844
1.064956
1.360837
1.616489
1.749182
1.822179
1.899718
1.912047
1.80466
1.607405
1.400418
1.221332
1.092208
1.048734
1.113296
1.241771
1.314443
1.347211
1.325474
1.278432
1.239824
1.208679
1.241771
1.303737
1.283947
1.226198
1.156445
1.090261
1.047761
1.064631
1.123029
1.200244
1.306982
1.393929
1.435457
1.371868
1.178507
0.938427
0.747337
0.651305
0.653252
0.733062
0.888465
1.151903
1.363433
1.492881
1.622329
1.749831
1.886092
2.032736
2.163482
2.257567
2.308503
2.309476
2.245887
2.134932
1.986666
1.784221
1.541546
1.281027
1.072742
0.95108
0.92253
0.9965
1.113296
1.264805
1.429941
1.581451
1.715766
1.81861
1.860787
1.817962
1.720308
1.569771
1.353375
1.076959
0.744093
0.385271
0.152005
0.061813
0.026774
0.013473
0.258094
0.713596
1.157094
1.559714
1.828343
1.925997
1.874737
1.762808
1.580478
1.380303
1.220358
1.132762
1.091883
1.077284
1.056845
0.986443
0.945889
0.977683
1.070471
1.220683
1.422479
1.659639
1.86468
1.967849
1.961036
1.866951
1.738476
1.607081
1.498721
1.408853
1.358242
1.35078
1.393929
1.502938
1.626547
1.734907
1.814717
1.860462
1.84716
1.769297
1.657043
1.509103
1.317688
1.130166
0.989687
0.921881
0.907931
0.949133
1.03965
1.146712
1.225549
1.20803
1.132762
1.054574
1.00818
1.028944
1.115567
1.217438
1.297897
1.342669
1.292382
1.085719
0.75999
0.436856
0.218838
0.168551
0.34634
0.642221
1.042894
1.512671
1.874413
2.087889
2.202738
2.241021
2.173539
1.971742
1.688838
1.342345
0.917339
0.510826
0.258743
0.173418
0.285346
0.61724
1.029268
1.437403
1.783247
2.048633
2.223502
2.277033
2.229666
2.065179
1.80174
1.494179
1.196999
0.956271
0.783673
0.721382
0.736306
0.821956
0.992283
1.223927
1.484446
1.747235
1.979529
2.124874
2.167375
2.129416
2.010999
1.848458
1.678456
1.522729
1.391983
1.302115
1.281351
1.307306
1.377059
1.49645
1.629467
1.748533
1.831912
1.852027
1.774812
1.646337
1.494828
1.317039
1.160663
1.059116
0.983523
0.906633
0.844018
0.850831
0.901766
1.010451
1.171694
1.276485
1.247611
1.114269
0.888789
0.528021
0.217216
0.08647
0.036832
0.017041
0.018339
0.322007
0.649683
0.921881
1.135033
1.31639
1.545763
1.810824
2.0814
2.300716
2.40421
2.342244
2.159913
1.913345
1.626871
1.372192
1.211599
1.158392
1.188888
1.274538
1.39036
1.49937
1.59897
1.730365
1.881875
2.017812
2.104435
2.105084
2.004186
1.839374
1.65023
1.457842
1.302115
1.178831
1.090586
1.031863
1.028295
1.098372
1.21387
1.367975
1.543492
1.726147
1.890959
2.010999
2.068423
2.050579
1.985693
1.868897
1.695326
1.492881
1.289462
1.099021
0.929992
0.835582
0.831365
0.904362
1.017588
1.11946
1.147361
1.10259
0.998123
0.847911
0.759341
0.784322
0.860239
1.004611
1.128544
1.245664
1.318661
1.302115
1.249233
1.177533
1.078906
0.941023
0.774589
0.624702
0.524452
0.593881
0.848884
1.215816
1.557118
1.768324
1.834183
1.765079
1.639849
1.456869
1.240473
1.067227
0.962435
0.974115
1.111349
1.351429
1.641795
1.919833
2.126496
2.220582
2.219933
2.141096
1.991857
1.818286
1.64212
1.469197
1.328718
1.25637
1.227171
1.27097
1.389712
1.525973
1.654448
1.747235
1.766377
1.714143
1.620058
1.510725
1.372517
1.244366
1.150281
1.07112
1.009802
0.990336
1.024726
1.081177
1.154499
1.255397
1.365055
1.458816
1.531164
1.555496
1.507805
1.392632
1.2395
1.051978
0.860239
0.647088
0.431016
0.270747
0.198399
0.247388
0.439451
0.785295
1.219385
1.645688
1.975311
2.193005
2.294552
2.290335
2.21312
2.061934
1.788763
1.357917
0.870297
0.446913
0.192559
0.13773
0.376187
0.827796
1.34786
1.757617
2.003212
2.078805
2.037926
1.922104
1.765404
1.622654
1.525973
1.47893
1.420533
1.331638
1.24242
1.180778
1.18532
1.235607
1.337803
1.470495
1.583397
1.63044
1.543492
1.338451
1.075662
0.829094
0.712623
0.775238
0.93129
1.119136
1.276161
1.325474
1.331314
1.349158
1.39328
1.489312
1.60481
1.728743
1.851378
1.941246
1.983097
1.957467
1.909776
1.835481
1.728418
1.600268
1.456869
1.342345
1.270321
1.255397
1.271943
1.307306
1.400742
1.523702
1.645688
1.746911
1.810824
1.81342
1.752426
1.607405
1.366028
1.080204
0.803139
0.592583
0.478383
0.412199
0.359641
0.285995
0.223056
0.248037
0.441074
0.788215
1.173316
1.554847
1.854947
2.000617
1.918536
1.67878
1.40788
1.136979
0.877434
0.655847
0.516666
0.47449
0.543269
0.795677
1.134384
1.512022
1.850405
2.089187
2.186192
2.123901
1.986991
1.822828
1.64731
1.480877
1.38225
1.345913
1.304711
1.280378
1.294329
1.348509
1.475362
1.63628
1.800442
1.955196
2.082049
2.127145
2.089836
1.996075
1.832885
1.601566
1.345589
1.117513
0.954
0.891385
0.93421
1.034135
1.174289
1.36765
1.5675
1.72777
1.823477
1.863707
1.831263
1.7534
1.647959
1.467251
1.209652
0.910202
0.561438
0.230517
0.091336
0.038454
0.01769
0.025801
0.48325
1.091559
1.668074
2.068748
2.294228
2.357817
2.306232
2.154398
1.889661
1.549656
1.153525
0.77394
0.480005
0.376187
0.469299
0.690237
1.048734
1.483797
1.872142
2.13039
2.2673
2.319534
2.291957
2.192032
2.022354
1.82445
1.629467
1.453949
1.297897
1.096101
0.881976
0.713272
0.646439
0.729493
0.958866
1.275512
1.614867
1.868573
1.97304
1.9672
1.86468
1.688838
1.492232
1.268699
1.017913
0.804112
0.695752
0.693157
0.753501
0.882301
1.05944
1.274863
1.502938
1.711224
1.878955
1.970445
1.976284
1.887066
1.731338
1.536355
1.352078
1.205759
1.102914
1.062684
1.064631
1.09967
1.182724
1.272267
1.352726
1.415342
1.469197
1.483148
1.428643
1.376086
1.276485
1.148334
1.022779
0.844666
0.66558
0.544892
0.50888
0.626648
0.924477
1.256695
1.581126
1.863382
2.066476
2.177757
2.206631
2.16997
2.083347
1.939948
1.758915
1.568798
1.381276
1.196999
1.039974
0.947187
0.920908
0.991634
1.129842
1.2966
1.446487
1.569122
1.629791
1.620707
1.589886
1.539599
1.491583
1.462384
1.435132
1.40788
1.386467
1.40496
1.450056
1.518187
1.62752
1.748209
1.857867
1.936379
1.979529
1.976284
1.920482
1.834832
1.708304
1.555172
1.393605
1.255397
1.151254
1.091559
1.084097
1.11362
1.187915
1.303413
1.419559
1.505858
1.538626
1.486392
1.320932
1.092532
0.822605
0.541647
0.384622
0.369699
0.4401
0.580579
0.794055
1.013371
1.189537
1.347536
1.440323
1.500018
1.54187
1.512347
1.440647
1.321257
1.126598
0.937454
0.766803
0.695428
0.784971
0.972168
1.225225
1.505858
1.644715
1.66775
1.654772
1.612596
1.558741
1.49937
1.386792
1.259939
1.170396
1.135682
1.172342
1.266428
1.37349
1.4679
1.497099
1.503587
1.545114
1.600917
1.661585
1.748858
1.83613
1.907829
1.965254
1.99283
1.95617
1.866626
1.728743
1.522729
1.312821
1.125949
1.006882
1.002989
1.103563
1.232362
1.37057
1.528893
1.685918
1.831588
1.949681
2.018136
2.022678
1.944815
1.824126
1.66775
1.471144
1.261561
1.03089
0.737928
0.409279
0.17212
0.070248
0.031316
0.290862
0.770696
1.295626
1.737178
1.963307
1.965903
1.875062
1.757942
1.612596
1.452003
1.257992
1.025375
0.77394
0.509529
0.348611
0.401493
0.697374
1.170396
1.65023
2.026896
2.339324
2.52133
2.548907
2.460986
2.283197
2.037278
1.785194
1.549332
1.32515
1.11362
0.958218
0.896575
0.92545
1.0536
1.23658
1.438376
1.62168
1.775137
1.892257
1.930864
1.904585
1.819908
1.665479
1.497423
1.351753
1.226198
1.127246
1.100643
1.146063
1.241771
1.392307
1.518835
1.54479
1.485419
1.398471
1.314443
1.264481
1.260588
1.223927
1.095128
0.852777
0.579606
0.380405
0.358019
0.528995
0.824227
1.231389
1.635631
1.945463
2.146936
2.264704
2.31564
2.284495
2.186192
2.035331
1.786816
1.438052
1.054249
0.728844
0.5118
0.467028
0.634759
0.933236
1.304386
1.645039
1.877333
1.993479
2.053499
2.059663
1.994128
1.88739
1.750804
1.582749
1.381925
1.130815
0.884896
0.700619
0.613347
0.652603
0.8398
1.125624
1.453625
1.723552
1.886092
1.968822
1.971742
1.918536
1.804335
1.591184
1.337803
1.089288
0.848235
0.656821
0.604263
0.658443
0.775887
0.876136
0.918312
0.965355
1.07112
1.219709
1.4108
1.593779
1.78195
1.839699
1.733285
1.593779
1.46498
1.369272
1.31639
1.334883
1.420857
1.525
1.630764
1.715766
1.769946
1.804984
1.819259
1.76735
1.658666
1.537653
1.414044
1.271294
1.136655
1.043867
0.981252
0.957893
0.989039
1.044841
1.082475
1.094803
1.06236
1.003314
0.964706
1.013371
1.123353
1.288489
1.53311
1.738151
1.775137
1.624925
1.411773
1.220683
1.055871
0.975412
0.997149
1.082799
1.201866
1.321905
1.416964
1.498396
1.576584
1.589562
1.516889
1.409178
1.215167
0.947187
0.748635
0.702241
0.783349
0.97379
1.283298
1.537653
1.74756
1.924051
2.06453
2.164779
2.199818
2.152775
2.018461
1.828019
1.599943
1.359539
1.154174
1.006882
0.958218
0.9965
1.123353
1.278107
1.411124
1.528893
1.600917
1.612596
1.593455
1.568798
1.51916
1.466926
1.438052
1.388414
1.315741
1.233984
1.176236
1.152876
1.165529
1.210625
1.228469
1.226847
1.259939
1.319634
1.380952
1.481201
1.566851
1.603837
1.657043
1.706681
1.651853
1.537328
1.408204
1.283947
1.197972
1.181426
1.223603
1.295302
1.383223
1.460762
1.508778
1.529866
1.546737
1.551279
1.536679
1.497747
1.376086
1.13925
0.843044
0.579281
0.389489
0.330118
0.484547
0.74831
1.026673
1.283947
1.458491
1.543817
1.539275
1.472766
1.403987
1.343642
1.226522
1.076959
0.963733
0.920259
0.920259
0.968924
1.093181
1.269996
1.39912
1.468224
1.51332
1.514618
1.501316
1.506183
1.548683
1.603837
1.655097
1.659639
1.594104
1.517213
1.434483
1.361811
1.309253
1.295951
1.316714
1.333261
1.295951
1.193755
1.097399
1.042245
1.034783
1.135682
1.309901
1.49353
1.686242
1.803687
1.802389
1.729067
1.634658
1.52208
1.402364
1.294653
1.201541
1.171694
1.252801
1.374788
1.49061
1.64212
1.778057
1.853325
1.837103
1.722254
1.561985
1.326447
0.978332
0.646114
0.388516
0.227598
0.247712
0.436207
0.754799
1.160663
1.490934
1.716414
1.8676
1.91302
1.89615
1.84197
1.703762
1.482499
1.201541
0.869648
0.47741
0.188666
0.075439
0.032614
0.015095
0.323954
0.984496
1.599295
2.095351
2.418485
2.537552
2.509651
2.405508
2.22707
2.014567
1.803362
1.618436
1.482175
1.43351
1.450056
1.511049
1.63044
1.77027
1.879279
1.923726
1.897447
1.816988
1.707006
1.603188
1.526622
1.473415
1.445189
1.429617
1.400093
1.363757
1.362459
1.392632
1.458816
1.559389
1.658017
1.720632
1.722254
1.67878
1.542519
1.326123
1.100319
0.898522
0.75123
0.687966
0.684397
0.747337
0.892358
1.01694
1.073066
1.135682
1.228469
1.333261
1.466602
1.597672
1.665479
1.612272
1.457842
1.224251
0.844018
0.428096
0.170822
0.068951
0.030343
0.02645
0.3976
0.87711
1.378032
1.805633
2.114492
2.335431
2.483372
2.541121
2.473639
2.308827
2.064854
1.785518
1.494828
1.262859
1.146712
1.166178
1.302115
1.453949
1.574638
1.697597
1.852027
2.008403
2.120332
2.182948
2.176783
2.119034
2.01035
1.825424
1.610974
1.405284
1.231065
1.108429
1.063009
1.088963
1.151254
1.248584
1.375761
1.518835
1.654448
1.75632
1.814717
1.793954
1.683971
1.478606
1.221332
0.976386
0.775563
0.655847
0.63995
0.724951
0.886194
1.092857
1.317363
1.499694
1.610974
1.620707
1.513645
1.268374
0.941023
0.631839
0.391436
0.232464
0.228246
0.383649
0.698023
1.059116
1.383547
1.634982
1.885768
2.100866
2.271518
2.39318
2.459364
2.473639
2.418485
2.285468
2.05577
1.760537
1.455571
1.15969
0.921232
0.804437
0.809628
0.899171
0.980279
1.038028
1.083773
1.15677
1.251828
1.324825
1.375112
1.405284
1.419235
1.414368
1.355322
1.237878
1.129842
1.08507
1.126273
1.261886
1.4533
1.652177
1.833534
1.932811
1.986017
2.018461
2.042793
2.059015
2.04993
1.999968
1.89031
1.739449
1.572042
1.416315
1.312821
1.269347
1.289138
1.343967
1.434483
1.559714
1.687216
1.792007
1.871493
1.910425
1.888363
1.810175
1.691758
1.514293
1.319634
1.133086
0.939076
0.705161
0.441398
0.201967
0.081928
0.034561
0.108856
0.466379
0.882301
1.274538
1.597672
1.77319
1.812122
1.777408
1.651528
1.458167
1.270321
1.144117
1.092857
1.124327
1.217438
1.352078
1.50456
1.66191
1.79298
1.805958
1.676185
1.513969
1.286542
1.022455
0.812548
0.685695
0.65974
0.787242
0.962111
1.132762
1.329692
1.530515
1.755346
1.998021
2.203387
2.345488
2.431138
2.466177
2.427894
2.335106
2.205982
2.034682
1.849756
1.671967
1.513645
1.389712
1.323852
1.31055
1.333909
1.40204
1.496125
1.591184
1.671318
1.722254
1.736854
1.704086
1.635306
1.510725
1.318986
1.055223
0.738902
0.456646
0.24901
0.143245
0.187044
0.343095
0.571495
0.840449
1.117189
1.394903
1.659639
1.843592
1.923402
1.931188
1.859164
1.704735
1.468224
1.195701
0.943618
0.78854
0.81125
0.958866
1.160663
1.375437
1.577558
1.758915
1.892257
1.957143
1.969471
1.949681
1.885119
1.722254
1.510076
1.299844
1.103238
0.940374
0.817739
0.718463
0.62016
0.611076
0.696401
0.861861
1.090261
1.337803
1.578855
1.797522
1.908803
1.916589
1.846187
1.736854
1.622005
1.518511
1.43059
1.392632
1.379005
1.376734
1.434483
1.52208
1.599943
1.691758
1.782923
1.821855
1.820233
1.814393
1.736529
1.568149
1.3537
1.134384
0.94232
0.870621
0.931939
1.049707
1.226198
1.43643
1.634009
1.78487
1.874088
1.886741
1.8105
1.676185
1.514293
1.315741
1.115567
0.978008
0.943943
0.918312
0.876785
0.846613
0.847586
0.919935
1.058791
1.231065
1.403013
1.556794
1.65315
1.649257
1.563607
1.394903
1.172018
0.947187
0.753177
0.64287
0.633137
0.701592
0.86251
1.092857
1.341047
1.535057
1.694353
1.835157
1.965254
2.050255
2.073614
2.043442
1.941246
1.799793
1.644391
1.502289
1.40788
1.339425
1.309577
1.317688
1.361486
1.416315
1.484446
1.576909
1.650555
1.685269
1.669696
1.628818
1.574962
1.471793
1.351429
1.23074
1.08507
0.929019
0.811574
0.766803
0.762585
0.789189
0.862186
0.931614
0.957244
1.012073
1.053925
1.071444
1.133735
1.221656
1.286542
1.335532
1.315741
1.220034
1.103887
1.020184
0.929343
0.829418
0.758368
0.687642
0.647412
0.6685
0.772967
0.935832
1.17072
1.37057
1.462709
1.486717
1.452003
1.342345
1.21095
1.127571
1.155796
1.267401
1.40204
1.596699
1.865978
2.12163
2.246861
2.286441
2.265678
2.205333
2.105733
1.948708
1.750155
1.550954
1.400418
1.303737
1.258966
1.264157
1.306657
1.398147
1.524351
1.658666
1.767999
1.844241
1.877008
1.844241
1.769297
1.651853
1.487041
1.305359
1.134384
0.974764
0.844018
0.788864
0.78562
0.801193
0.857968
0.927072
0.992607
1.049058
1.10778
1.163907
1.23366
1.327745
1.379005
1.36765
1.326447
1.271294
1.191484
1.038677
0.788864
0.514395
0.277236
0.115344
0.047214
0.021259
0.17796
0.620484
1.072093
1.439674
1.782599
2.046362
2.140771
2.105408
2.021056
1.935082
1.880901
1.86468
1.87052
1.901665
1.926971
1.932162
1.910425
1.865978
1.793629
1.700842
1.615841
1.527595
1.420533
1.315092
1.24534
1.207705
1.189213
1.208354
1.25053
1.321581
1.443243
1.565554
1.657368
1.723552
1.769946
1.775461
1.734583
1.650555
1.508129
1.338451
1.172667
1.050356
0.97379
0.930965
0.949133
0.942969
0.87419
0.799895
0.776536
0.814819
0.943943
1.141521
1.352402
1.545763
1.670345
1.697922
1.672616
1.61876
1.543817
1.466278
1.403987
1.368299
1.351104
1.348184
1.335532
1.287191
1.197648
1.120433
1.08215
1.073715
1.167476
1.271618
1.246313
1.13925
0.936481
0.671744
0.434909
0.330767
0.376512
0.535483
0.783349
1.113296
1.466278
1.760537
1.991533
2.147585
2.217337
2.208253
2.088862
1.843916
1.480877
1.052627
0.666878
0.351206
0.168875
0.149734
0.312923
0.625351
1.027646
1.501316
1.986017
2.303312
2.423352
2.429192
2.36463
2.225448
2.045064
1.855271
1.686242
1.550305
1.468549
1.446487
1.464331
1.533759
1.636929
1.748209
1.842943
1.905558
1.922104
1.877333
1.793305
1.674887
1.523702
1.36765
1.228145
1.119136
1.040299
1.02797
1.061711
1.114269
1.171369
1.164556
1.063009
0.904362
0.740199
0.627946
0.652927
0.759665
0.805735
0.810601
0.792757
0.764856
0.721058
0.629893
0.555598
0.548136
0.628271
0.768101
0.917015
1.073715
1.232362
1.382574
1.538301
1.709277
1.880577
2.008403
2.043442
1.995426
1.892257
1.772217
1.687216
1.65315
1.646013
1.676509
1.710899
1.739449
1.769621
1.834183
1.897447
1.891283
1.835805
1.745289
1.601241
1.426048
1.235607
1.059116
0.910526
0.83688
0.833636
0.891709
1.039974
1.235931
1.420857
1.564905
1.696949
1.805633
1.859489
1.836779
1.71609
1.529542
1.323852
1.12822
0.980928
0.904686
0.916041
0.979306
1.075337
1.208679
1.345264
1.452327
1.514942
1.543168
1.548359
1.534408
1.478606
1.361486
1.222305
1.065929
0.941996
0.850506
0.741822
0.656821
0.640275
0.701268
0.842071
1.077284
1.35078
1.620058
1.806607
1.849432
1.805309
1.679754
1.49645
1.3391
1.20803
1.104536
1.06528
1.068849
1.111349
1.21679
1.371219
1.540897
1.709926
1.846836
1.916264
1.905558
1.806931
1.6246
1.393605
1.178182
0.987741
0.840124
0.76291
0.741822
0.769398
0.819036
0.915068
1.076311
1.251179
1.422804
1.592806
1.746911
1.85592
1.917562
1.897123
1.782599
1.636929
1.497099
1.361811
1.249557
1.198621
1.198946
1.222629
1.249557
1.247286
1.19927
1.143468
1.104536
1.129842
1.231065
1.396525
1.551279
1.654448
1.673589
1.626222
1.533759
1.435132
1.388738
1.391009
1.428968
1.521431
1.632711
1.725499
1.781625
1.804335
1.77611
1.6817
1.528244
1.303088
1.053925
0.832987
0.672718
0.610427
0.658118
0.799246
0.986767
1.187915
1.350455
1.4108
1.399445
1.327096
1.20803
1.087666
1.033161
1.00234
0.975088
0.971519
0.944591
0.89982
0.87419
0.926099
1.031539
1.157094
1.326447
1.49061
1.637902
1.784221
1.911722
2.000292
2.01327
1.944166
1.811797
1.6246
1.415342
1.15969
0.775563
0.340175
0.132864
0.054676
0.023855
0.012175
0.237655
0.894953
1.541546
2.054473
2.369496
2.477208
2.445738
2.319534
2.145962
1.957143
1.781625
1.641795
1.549008
1.521106
1.51916
1.535381
1.599943
1.692082
1.788763
1.879279
1.958441
1.994128
1.981151
1.925024
1.79882
1.63044
1.454274
1.304062
1.186617
1.123029
1.121407
1.15969
1.251504
1.380952
1.53311
1.674238
1.746911
1.731663
1.635306
1.480228
1.297249
1.108105
0.93129
0.801841
0.718463
0.682451
0.689264
0.73728
0.829094
0.962435
1.08507
1.152552
1.169747
1.172342
1.143468
1.066578
0.98839
0.886194
0.768425
0.696077
0.673367
0.677909
0.757394
0.971519
1.235282
1.480553
1.71901
1.941246
2.116439
2.230964
2.266002
2.178406
1.992506
1.74464
1.458491
1.190186
0.939725
0.687966
0.519262
0.472219
0.537105
0.711649
1.031215
1.412422
1.806931
2.085618
2.219284
2.246536
2.166726
2.025274
1.825748
1.580478
1.334234
1.107132
0.928045
0.822605
0.791784
0.81709
0.890736
1.032512
1.215167
1.427346
1.649906
1.837752
1.945788
1.963956
1.908803
1.769297
1.589886
1.404635
1.225225
1.077284
0.983523
0.96795
0.981901
0.983848
1.02797
1.127571
1.247286
1.374463
1.523702
1.634333
1.68462
1.686242
1.639849
1.570745
1.477308
1.37057
1.254424
1.127246
1.015317
0.951404
0.984172
1.080528
1.154823
1.166827
1.132437
1.106807
1.065604
0.987416
0.895602
0.790162
0.704836
0.685046
0.750581
0.871594
1.051329
1.251828
1.427021
1.617787
1.815366
1.991533
2.134932
2.241994
2.248807
2.065503
1.697597
1.14217
0.547812
0.213647
0.08647
0.037805
0.019961
0.389489
0.923179
1.389712
1.799145
2.098271
2.294877
2.410375
2.470719
2.460013
2.385718
2.246536
2.036304
1.810175
1.584371
1.366353
1.182075
1.065929
1.040299
1.112323
1.266752
1.458816
1.646662
1.803038
1.905558
1.954547
1.930215
1.850405
1.720308
1.549656
1.372517
1.219709
1.12822
1.075986
1.066578
1.103238
1.172667
1.247611
1.333909
1.454598
1.579829
1.684296
1.726796
1.689487
1.589886
1.412746
1.180778
0.908904
0.66558
0.508231
0.424852
0.406359
0.452753
0.564358
0.732738
0.947836
1.183373
1.390036
1.525973
1.55063
1.500343
1.411773
1.266752
1.127246
1.003962
0.880029
0.729169
0.534185
0.330118
0.223056
0.310003
0.641897
1.15969
1.641795
2.060637
2.430814
2.585568
2.556369
2.424325
2.216364
1.968174
1.720956
1.497423
1.35662
1.318661
1.346887
1.405609
1.452976
1.439674
1.40788
1.394578
1.43351
1.549981
1.676509
1.729392
1.704735
1.622329
1.501965
1.404635
1.328718
1.288165
1.303088
1.338127
1.407231
1.514942
1.603512
1.626547
1.607081
1.571718
1.477633
1.364082
1.237553
1.070471
0.933561
0.843044
0.800544
0.777185
0.81417
0.894629
0.967626
1.070146
1.191808
1.280054
1.322554
1.314443
1.25637
1.165854
1.117838
1.112971
1.136655
1.189862
1.247935
1.315741
1.391009
1.468549
1.525324
1.597997
1.717388
1.840672
1.942868
2.003861
2.00743
1.954547
1.828343
1.644391
1.432861
1.206732
1.010775
0.899495
0.843693
0.836231
0.918637
1.034459
1.195377
1.402689
1.609676
1.784545
1.904585
1.959738
1.917887
1.772217
1.586966
1.371219
1.176236
1.065929
1.015642
0.980928
0.958218
0.980928
1.030566
1.106483
1.196999
1.269996
1.272267
1.210301
1.10778
0.962111
0.854075
0.796975
0.761936
0.760314
0.787566
0.868674
0.95108
1.040623
1.234958
1.495152
1.746262
1.962658
2.099569
2.114492
1.970445
1.711224
1.42183
1.157743
0.958542
0.883274
0.924477
1.06236
1.261886
1.403338
1.514942
1.620058
1.739774
1.884146
2.020732
2.109302
2.11287
2.036953
1.893879
1.712521
1.52792
1.356295
1.232362
1.208354
1.230091
1.250855
1.282325
1.299844
1.300817
1.337154
1.406907
1.489961
1.570745
1.6392
1.680403
1.670345
1.618436
1.51332
1.312497
0.995527
0.641572
0.341149
0.14357
0.059866
0.139352
0.405062
0.734035
1.079879
1.391983
1.660288
1.887066
2.066476
2.165104
2.17873
2.077183
1.870195
1.616165
1.317363
0.92837
0.469624
0.184773
0.07479
0.03229
0.216242
0.750906
1.314768
1.881875
2.237777
2.354572
2.341595
2.27606
2.139149
1.949357
1.730689
1.522729
1.354997
1.249233
1.210625
1.222305
1.279729
1.373166
1.484446
1.581775
1.649257
1.675536
1.600917
1.416964
1.154823
0.859915
0.643519
0.556896
0.62016
0.802166
1.036081
1.252477
1.471793
1.689811
1.85884
1.988288
2.081725
2.13039
2.120008
2.060637
1.976284
1.85592
1.699544
1.512347
1.317688
1.162609
1.082799
1.086044
1.130166
1.196999
1.306333
1.434159
1.549981
1.652501
1.734583
1.752751
1.705384
1.609352
1.448109
1.265779
1.084097
0.891709
0.704836
0.492658
0.247712
0.10042
0.041698
0.019313
0.070248
0.261014
0.465081
0.675638
0.912473
1.177533
1.43059
1.618436
1.725174
1.704086
1.588588
1.455896
1.378032
1.319959
1.267725
1.249557
1.252153
1.268374
1.317363
1.363433
1.394578
1.448758
1.496125
1.518187
1.466602
1.34494
1.211599
1.084421
0.975737
0.943618
1.000394
1.146712
1.311524
1.457193
1.587291
1.682674
1.732312
1.705384
1.622978
1.495476
1.299195
1.073715
0.866403
0.708405
0.638328
0.676286
0.804112
0.995852
1.231065
1.453949
1.638226
1.766701
1.838725
1.856569
1.805309
1.709926
1.571718
1.395227
1.21387
1.041921
0.894953
0.793406
0.769074
0.807032
0.882949
1.003314
1.145739
1.289462
1.413071
1.492232
1.508778
1.448434
1.32223
1.088963
0.678557
0.269449
0.10626
0.044294
0.019961
0.010228
0.006011
0.126375
0.542296
0.987416
1.394578
1.6963
1.901341
2.017487
2.032087
1.965903
1.794278
1.549332
1.279405
0.970221
0.62016
0.30027
0.12086
0.04916
0.021584
0.024179
0.42907
0.952053
1.448758
1.806282
2.0243
2.105733
2.017487
1.828992
1.630116
1.439674
1.274863
1.158392
1.117189
1.132437
1.188564
1.232687
1.21095
1.156121
1.093181
1.030566
1.028295
1.104861
1.229118
1.341696
1.417613
1.421182
1.372841
1.32515
1.298222
1.307955
1.352078
1.432537
1.547385
1.662559
1.760213
1.828019
1.870844
1.857542
1.807904
1.738476
1.614218
1.441296
1.238202
1.041596
0.927397
0.904037
0.938427
1.03381
1.189213
1.360513
1.493854
1.57626
1.596375
1.53603
1.371868
1.137628
0.852453
0.523804
0.235708
0.094905
0.039752
0.018339
0.00958
0.102691
0.406035
0.714245
1.001042
1.276161
1.506507
1.656395
1.687864
1.63336
1.51916
1.352402
1.185644
1.067875
1.012722
0.944267
0.742795
0.47157
0.247388
0.165631
0.33466
0.746039
1.264805
1.870195
2.380527
2.604709
2.656294
2.60179
2.470394
2.316289
2.152775
2.010025
1.896474
1.835481
1.817313
1.786816
1.75048
1.712521
1.696624
1.713495
1.737178
1.762808
1.760862
1.728094
1.651853
1.55355
1.460438
1.3537
1.242744
1.14217
1.087017
1.092208
1.165205
1.300168
1.458491
1.619409
1.755022
1.85592
1.903612
1.880577
1.795251
1.644715
1.4533
1.254424
1.102914
0.998123
0.935183
0.969248
1.078582
1.231389
1.411124
1.574962
1.703437
1.797847
1.863707
1.874088
1.835805
1.743991
1.552576
1.279729
0.998771
0.756745
0.563709
0.433287
0.393707
0.444642
0.595179
0.814819
1.108105
1.451029
1.76151
1.991857
2.100217
2.093729
1.976933
1.800442
1.603837
1.379654
1.166178
0.991958
0.887167
0.882301
1.006233
1.261237
1.557767
1.823801
2.040522
2.183272
2.229666
2.166402
2.027545
1.825748
1.603512
1.392956
1.181102
0.998447
0.898522
0.890411
0.909553
0.978008
1.122055
1.318012
1.531813
1.745938
1.905234
1.955196
1.921131
1.832237
1.673589
1.480228
1.294329
1.143468
1.091883
1.177858
1.307955
1.431239
1.582424
1.778381
1.976933
2.171268
2.354572
2.480452
2.517437
2.482398
2.344839
2.125199
1.88447
1.65899
1.476984
1.367326
1.366677
1.434483
1.550954
1.738476
1.965903
2.191383
2.37566
2.49278
2.523277
2.499918
2.43568
2.294877
2.092431
1.853974
1.607081
1.38225
1.213545
1.117513
1.055223
1.051978
1.139899
1.280054
1.462384
1.648933
1.820233
1.926322
1.95325
1.891283
1.717712
1.468549
1.203163
0.977683
0.834933
0.847262
0.998771
1.199919
1.363433
1.44227
1.31931
1.028619
0.79438
0.770372
0.886843
1.1107
1.418262
1.80758
2.169646
2.283197
2.220906
2.090484
1.973689
1.897123
1.85592
1.868573
1.899394
1.869546
1.809851
1.76735
1.717388
1.635955
1.548034
1.471793
1.418262
1.371868
1.348184
1.36765
1.441621
1.561985
1.69338
1.835157
1.987964
2.111573
2.187814
2.223502
2.232261
2.18165
2.076858
1.93865
1.755346
1.560363
1.383547
1.257992
1.184022
1.168774
1.20803
1.28492
1.407555
1.560687
1.712197
1.825748
1.874088
1.833534
1.722579
1.568474
1.380303
1.186293
1.026024
0.925125
0.884247
0.909877
0.953675
1.001691
1.077933
1.15969
1.134059
1.04257
0.955946
0.944267
1.093505
1.330341
1.578206
1.812446
1.941246
1.898421
1.74172
1.466602
1.129842
0.850182
0.635084
0.455349
0.305137
0.194506
0.179582
0.267178
0.488116
0.892682
1.379979
1.793629
2.103786
2.268598
2.271842
2.193005
2.074587
1.923726
1.765079
1.638875
1.573989
1.557767
1.578855
1.625898
1.691109
1.7534
1.778705
1.802389
1.826397
1.797847
1.729067
1.642768
1.557767
1.494179
1.49061
1.527595
1.589237
1.695326
1.813744
1.925024
2.017163
2.094053
2.119034
2.065179
1.950979
1.785518
1.584695
1.35662
1.169747
1.053925
0.992607
1.003962
1.052627
1.129842
1.178831
1.160663
1.104536
1.007856
0.849533
0.695428
0.627946
0.621782
0.609778
0.601018
0.589988
0.629893
0.704188
0.737604
0.832662
1.019211
1.244691
1.480877
1.722579
1.911722
2.010999
2.028518
1.960063
1.828992
1.627196
1.37057
1.106807
0.819361
0.590637
0.490387
0.524128
0.704836
0.9965
1.331314
1.689162
2.019109
2.263082
2.402913
2.434058
2.372416
2.254323
2.079778
1.872466
1.657043
1.453625
1.285569
1.160014
1.096425
1.099345
1.170071
1.306982
1.470495
1.628169
1.76151
1.856245
1.883497
1.801416
1.639849
1.432861
1.21387
1.003638
0.823254
0.686344
0.633461
0.672393
0.788215
0.981577
1.188564
1.352726
1.452976
1.50748
1.543168
1.508129
1.420857
1.281676
1.09675
0.933885
0.846289
0.799895
0.758368
0.669473
0.513746
0.345042
0.277236
0.328171
0.463459
0.706783
1.028295
1.309253
1.562309
1.810175
2.012296
2.096649
2.048308
1.94157
1.810824
1.684296
1.610001
1.559065
1.532462
1.567176
1.597672
1.563931
1.503587
1.437728
1.356944
1.304711
1.299195
1.279729
1.301466
1.294329
1.229118
1.154499
1.09675
1.067875
1.083124
1.156121
1.257343
1.357268
1.452651
1.532786
1.583073
1.590535
1.570745
1.49937
1.385818
1.282974
1.203812
1.137304
1.088315
1.096425
1.174938
1.307306
1.466278
1.619085
1.755022
1.863707
1.93573
1.946761
1.886417
1.749182
1.546088
1.318986
1.08215
0.824876
0.541647
0.312599
0.215269
0.267503
0.490712
0.824876
1.132113
1.396525
1.599619
1.741071
1.807255
1.803687
1.745938
1.602863
1.348184
0.992607
0.608156
0.279507
0.112424
0.047214
0.059218
0.328171
0.653576
1.006558
1.328718
1.586966
1.733934
1.775461
1.749831
1.677807
1.546088
1.384845
1.228469
1.103887
1.023104
1.030241
1.112323
1.244366
1.414693
1.575611
1.723876
1.871817
1.97888
1.993804
1.882524
1.658341
1.383223
1.127571
0.918961
0.802815
0.760314
0.774914
0.859915
0.9965
1.172018
1.378357
1.559714
1.660612
1.670994
1.638875
1.591508
1.555821
1.561336
1.563931
1.537004
1.512671
1.491583
1.471793
1.466926
1.491908
1.531813
1.604485
1.714792
1.825748
1.877333
1.840996
1.73588
1.571069
1.410475
1.280054
1.152552
1.069173
1.041596
1.031215
0.954649
0.833311
0.714894
0.627946
0.631515
0.760639
0.971519
1.172018
1.359215
1.482499
1.534733
1.562958
1.527595
1.410151
1.234633
1.037379
0.808006
0.5543
0.379756
0.334984
0.450806
0.75415
1.175911
1.608379
2.004834
2.227395
2.248483
2.142394
1.919833
1.584046
1.188888
0.764532
0.454375
0.338878
0.42323
0.70289
1.125624
1.555821
1.930864
2.23583
2.466177
2.608278
2.659863
2.620931
2.529441
2.386367
2.193978
1.986342
1.792007
1.61876
1.458491
1.355322
1.305035
1.297573
1.352402
1.443892
1.548683
1.649581
1.734583
1.77611
1.766053
1.724525
1.632711
1.511049
1.380952
1.256695
1.157094
1.098048
1.09967
1.129842
1.165854
1.219061
1.261886
1.251504
1.196026
1.127246
1.04549
0.985145
1.012398
1.042245
1.03965
1.044192
1.041272
0.966004
0.787891
0.568575
0.371321
0.217865
0.191586
0.298648
0.453402
0.716192
1.063009
1.311524
1.446487
1.530839
1.594104
1.637902
1.683647
1.748209
1.82153
1.908478
1.989911
2.067125
2.171268
2.279304
2.360088
2.37566
2.293903
2.080427
1.734583
1.332936
0.927397
0.587717
0.419985
0.437505
0.598098
0.878732
1.187915
1.445838
1.659963
1.865004
2.057392
2.213769
2.318236
2.361061
2.326671
2.234532
2.103462
1.923078
1.729067
1.542843
1.382899
1.263183
1.20219
1.19927
1.233336
1.314119
1.41891
1.521431
1.608703
1.664505
1.678456
1.631089
1.551279
1.423777
1.233336
1.001691
0.774914
0.590961
0.468326
0.420959
0.377161
0.29735
0.254525
0.291511
0.41447
0.69705
1.122055
1.51624
1.884795
2.15602
2.209227
2.127794
2.005808
1.859813
1.674238
1.438701
1.212247
1.008504
0.860564
0.831365
0.904362
1.018562
1.146063
1.247611
1.172342
1.010451
0.893656
0.773616
0.803464
0.980279
1.187266
1.385818
1.561985
1.705708
1.80466
1.894203
1.982773
2.007105
1.992506
1.936379
1.783572
1.50456
1.165205
0.845964
0.598098
0.524128
0.648061
0.894953
1.165529
1.423128
1.64212
1.806931
1.970769
2.126172
2.263407
2.363981
2.414917
2.40421
2.328618
2.20436
2.027545
1.826072
1.628493
1.454598
1.323852
1.233984
1.171694
1.161636
1.220358
1.326123
1.436105
1.524351
1.592157
1.623627
1.608054
1.581126
1.538301
1.428968
1.257668
1.053276
0.794055
0.456322
0.185421
0.074141
0.031965
0.01477
0.184124
0.676286
1.196999
1.714468
2.106057
2.274437
2.310125
2.244914
2.070045
1.785843
1.44227
1.121082
0.786593
0.437829
0.20359
0.152329
0.366454
0.72852
1.109727
1.463033
1.757293
1.934757
2.005483
2.035331
2.0243
2.000292
1.961361
1.890634
1.803687
1.71609
1.674563
1.66775
1.698246
1.771568
1.85008
1.91302
1.92762
1.802064
1.542843
1.267725
1.038677
0.903713
0.927072
1.072417
1.306008
1.53311
1.662559
1.726796
1.76443
1.830614
1.929891
2.035007
2.119034
2.16997
2.179054
2.125199
2.03014
1.911722
1.756644
1.590859
1.424426
1.249882
1.083448
1.009153
0.997798
1.009802
1.086368
1.204137
1.330016
1.424426
1.452651
1.424101
1.352078
1.25637
1.14801
1.028295
0.889114
0.727222
0.505311
0.248037
0.101069
0.041698
0.018664
0.167578
0.585121
0.984496
1.391009
1.77611
1.992506
2.067125
2.092431
1.989911
1.812771
1.658017
1.552576
1.49061
1.499694
1.517213
1.540248
1.605134
1.669372
1.70733
1.736529
1.725174
1.683971
1.649581
1.608703
1.566527
1.504885
1.465953
1.436105
1.405609
1.401391
1.433834
1.471793
1.508129
1.544141
1.556794
1.516889
1.409502
1.281351
1.17072
1.129517
1.155472
1.230091
1.359215
1.466602
1.517213
1.545439
1.549656
1.574638
1.622329
1.693704
1.806607
1.93573
2.045713
2.122928
2.160237
2.137527
2.062908
1.934757
1.732312
1.506183
1.291409
1.112323
0.991958
0.949458
0.974115
1.031539
1.152228
1.339749
1.507156
1.595401
1.606432
1.542519
1.395876
1.222629
1.060089
0.891385
0.7256
0.568575
0.421283
0.252579
0.1121
0.046565
0.02061
0.014122
0.243819
0.567926
0.878083
1.206408
1.491908
1.670021
1.802389
1.907829
1.943841
1.914642
1.850405
1.737827
1.600592
1.461411
1.295626
1.121082
0.978008
0.895602
0.875163
0.954324
1.168449
1.398796
1.574962
1.710899
1.771568
1.75632
1.695651
1.619085
1.551279
1.525973
1.555172
1.616489
1.71025
1.818935
1.925024
2.012945
2.070694
2.090484
2.069721
2.026571
1.932811
1.762808
1.54771
1.320283
1.120433
0.992932
0.95984
0.98839
1.046138
1.126273
1.206408
1.281351
1.335532
1.322554
1.217763
1.051005
0.848235
0.652279
0.558842
0.558842
0.616591
0.713272
0.815792
0.898198
0.940374
0.980928
1.029592
0.997149
0.86543
0.698023
0.48325
0.231491
0.098798
0.132215
0.308705
0.553002
0.688615
0.750581
0.76291
0.796002
0.943618
1.178182
1.480553
1.843916
2.114817
2.237777
2.293903
2.307205
2.239074
2.077183
1.816988
1.449732
1.029268
0.626324
0.330442
0.215269
0.248686
0.369699
0.618213
0.955946
1.269672
1.527271
1.718037
1.825099
1.832561
1.757293
1.657368
1.551279
1.460113
1.397174
1.355646
1.318337
1.289462
1.268699
1.201217
1.136979
1.137953
1.198297
1.311199
1.50456
1.73296
1.894852
1.988613
2.003212
1.897447
1.72193
1.534084
1.364082
1.207381
1.081502
1.023753
1.025375
1.070471
1.153201
1.253126
1.327096
1.368624
1.391334
1.400418
1.391334
1.341696
1.223603
1.067551
0.918961
0.770047
0.621458
0.532239
0.529643
0.594205
0.727222
0.899495
1.087341
1.219061
1.289462
1.277458
1.160663
0.980928
0.770696
0.596801
0.517964
0.547487
0.657469
0.832338
1.066578
1.309577
1.526946
1.738151
1.91302
2.03014
2.088213
2.093404
2.00743
1.889012
1.763133
1.5675
1.344291
1.126598
0.947511
0.843369
0.825525
0.879705
0.960164
1.023428
1.067875
1.064956
0.996176
0.878407
0.733711
0.590637
0.531266
0.575388
0.687642
0.883923
1.130166
1.31931
1.409178
1.441945
1.454274
1.445189
1.455896
1.479904
1.51332
1.532786
1.477633
1.312497
1.128544
0.978008
0.844342
0.769398
0.763883
0.82812
0.911499
0.917988
0.924801
1.002665
1.19343
1.452651
1.715441
1.961036
2.06745
1.969796
1.76151
1.49645
1.1824
0.909553
0.714569
0.566629
0.550407
0.672718
0.856346
1.089612
1.331963
1.595077
1.835481
2.02722
2.13039
2.154722
2.122279
1.998021
1.814717
1.612921
1.389712
1.192133
1.044841
0.936156
0.867701
0.87127
0.957569
1.111674
1.345589
1.597672
1.808229
1.963307
2.063232
2.104759
2.075561
1.99283
1.855596
1.702788
1.558416
1.434483
1.338451
1.285893
1.31347
1.378357
1.448758
1.509751
1.54187
1.505209
1.390036
1.264481
1.140873
1.022779
0.944916
0.889438
0.851804
0.844666
0.884572
0.955622
1.032837
1.092208
1.100643
1.123029
1.22782
1.384845
1.547385
1.729067
1.89031
2.011972
2.069721
2.005808
1.81342
1.549332
1.266752
1.003962
0.806059
0.667851
0.562735
0.516342
0.593881
0.822281
1.155472
1.529866
1.933784
2.237452
2.343866
2.311098
2.157642
1.921455
1.662883
1.402364
1.170396
1.039325
1.044516
1.132762
1.268699
1.457518
1.676834
1.892257
2.08432
2.224799
2.229666
2.074263
1.774812
1.341371
0.891385
0.551705
0.376836
0.375538
0.540674
0.8398
1.165854
1.501641
1.816015
2.07329
2.269571
2.403237
2.466177
2.441844
2.356194
2.212795
2.009052
1.796549
1.597348
1.404635
1.231713
1.119136
1.070471
1.076311
1.154499
1.271943
1.34786
1.30763
1.187915
1.060738
0.97963
0.999096
1.091559
1.197648
1.308604
1.378357
1.380628
1.341696
1.311199
1.225549
0.9965
0.641248
0.29443
0.115993
0.047214
0.021584
0.238953
0.766154
1.214843
1.478606
1.626547
1.728743
1.795251
1.809202
1.787141
1.739449
1.715441
1.720632
1.714143
1.682998
1.641795
1.597672
1.57918
1.598321
1.667425
1.743667
1.784545
1.777083
1.735231
1.67067
1.60481
1.579504
1.599619
1.65023
1.758266
1.886092
2.001266
2.093729
2.150504
2.152127
2.089511
1.986666
1.834832
1.641146
1.435132
1.248259
1.093181
0.984496
0.949458
0.978981
1.067551
1.214519
1.379005
1.532786
1.65315
1.719334
1.683971
1.536679
1.301142
0.954324
0.494929
0.191261
0.077386
0.033587
0.015419
0.008606
0.047214
0.575064
1.216141
1.71609
1.999319
2.128443
2.16997
2.124874
1.998995
1.800118
1.533435
1.261561
1.010127
0.835258
0.801841
0.872892
1.027321
1.220034
1.437079
1.667101
1.889661
2.050904
2.163482
2.215391
2.168673
2.059988
1.898745
1.706681
1.513645
1.358566
1.250206
1.176236
1.132113
1.094479
1.08215
1.124975
1.201217
1.288165
1.382899
1.468549
1.509427
1.512671
1.497747
1.43643
1.325474
1.166827
1.001042
0.86543
0.775887
0.753826
0.778807
0.850506
0.966328
1.110052
1.270321
1.464331
1.652501
1.765728
1.821855
1.799469
1.652826
1.42767
1.174613
0.933236
0.740524
0.669149
0.701592
0.787891
0.958542
1.181426
1.359864
1.442594
1.457842
1.422155
1.338127
1.243717
1.118811
0.953027
0.795677
0.687317
0.65974
0.732089
0.909228
1.090261
1.175262
1.228794
1.29952
1.3962
1.503912
1.544141
1.480228
1.349158
1.124002
0.818063
0.557869
0.37197
0.234735
0.158494
0.209754
0.381378
0.601018
0.886194
1.183698
1.413395
1.562309
1.675212
1.745938
1.740747
1.768324
1.789087
1.755022
1.692406
1.615841
1.545763
1.507156
1.515267
1.563931
1.636604
1.746262
1.871493
1.991208
2.076534
2.114492
2.092755
2.009052
1.891932
1.740747
1.550305
1.351429
1.157419
0.977035
0.817739
0.734035
0.713272
0.757394
0.861861
0.972168
1.073715
1.145739
1.179155
1.184346
1.161312
1.060738
0.849533
0.55722
0.255823
0.10042
0.041374
0.018339
0.009255
0.202292
0.72268
1.231389
1.673914
1.981475
2.125199
2.04993
1.777408
1.417288
1.017588
0.611725
0.283724
0.118264
0.161738
0.357046
0.538727
0.752203
1.061062
1.379654
1.585993
1.737827
1.846512
1.879604
1.85008
1.751778
1.540897
1.285245
1.024726
0.792109
0.653576
0.583823
0.537754
0.567277
0.639301
0.732413
0.892358
1.121731
1.406258
1.655746
1.823153
1.917238
1.966227
1.966876
1.884795
1.773839
1.661261
1.560363
1.48185
1.43935
1.442594
1.47601
1.552901
1.664181
1.783896
1.881226
1.945139
1.962983
1.916913
1.82445
1.694353
1.524351
1.344291
1.180778
1.037379
0.927072
0.886518
0.900144
0.934858
0.984172
1.040948
1.109078
1.154499
1.138277
1.013695
0.779131
0.473517
0.19191
0.075764
0.03229
0.015419
0.008606
0.018015
0.374565
0.774914
1.059116
1.209976
1.27389
1.269672
1.217763
1.198621
1.183698
1.141846
1.117513
1.121731
1.16488
1.2395
1.30244
1.332612
1.387441
1.458491
1.506507
1.556794
1.635631
1.730689
1.790709
1.743667
1.587615
1.2966
0.886843
0.466055
0.187044
0.075764
0.032939
0.016068
0.190612
0.548136
0.900144
1.111349
1.231065
1.269672
1.220683
1.132113
1.077933
1.071444
1.103238
1.192457
1.271618
1.273565
1.223603
1.163583
1.116216
1.089288
1.080528
1.055223
1.046787
1.088963
1.152876
1.218736
1.291084
1.394903
1.458167
1.442918
1.372192
1.245664
1.090586
0.894953
0.639301
0.321034
0.125726
0.051107
0.022232
0.010877
0.006335
0.004713
0.308381
0.704512
1.042245
1.290436
1.407231
1.450705
1.408529
1.292707
1.132762
0.942969
0.740848
0.543269
0.3405
0.162711
0.067653
0.028397
0.013148
0.007309
0.004389
0.005686
0.230842
0.478059
0.629893
0.69413
0.658443
0.580904
0.491036
0.395329
0.333362
0.28924
0.278209
0.315519
0.378458
0.455349
0.528021
0.587717
0.63703
0.636381
0.544243
0.375538
0.202292
0.086145
0.036183
0.016393
0.008606
0.061813
0.211052
0.3976
0.626
0.853102
1.041921
1.1824
1.263832
1.256046
1.180453
1.052627
0.852777
0.620809
0.392409
0.186395
0.07479
0.031316
0.014122
0.123131
0.399871
0.638652
0.848235
1.020508
1.143144
1.185644
1.138277
1.029917
0.863159
0.604911
0.279831
0.109504
0.044294
0.018988
0.009255
0.005038
0.003415
0.267827
0.644492
0.911175
1.08215
1.185969
1.215167
1.196999
1.1678
1.106158
0.986119
0.791784
0.543918
0.27756
0.111776
0.045591
0.019961
0.010877
0.011851
0.089714
0.261663
0.527372
0.855373
1.181102
1.508454
1.720632
1.734258
1.622329
1.490934
1.375437
1.276809
1.233011
1.253775
1.325799
1.45622
1.606108
1.740098
1.823153
1.863707
1.858516
1.800767
1.686242
1.479579
1.204786
0.920908
0.660065
0.479681
0.438154
0.543269
0.768749
1.072093
1.345589
1.559714
1.759239
1.891283
1.850729
1.616165
1.304062
1.0111
0.754799
0.655523
0.672718
0.740524
0.864132
0.953675
1.04841
1.214519
1.456869
1.739449
1.998021
2.163482
2.226421
2.181001
2.02138
1.810824
1.607081
1.43643
1.351753
1.382899
1.475686
1.564256
1.671967
1.807255
1.921455
2.043117
2.176135
2.306556
2.395126
2.405184
2.336404
2.164779
1.909776
1.617787
1.316714
1.032188
0.819361
0.723005
0.73436
0.870297
1.083448
1.334883
1.606432
1.875711
2.08724
2.217013
2.291957
2.301365
2.251078
2.15018
1.994777
1.826721
1.687216
1.60773
1.594753
1.610974
1.525649
1.281027
0.999745
0.787566
0.777185
1.028944
1.448109
1.996399
2.581675
2.919409
2.998246
2.931413
2.796125
2.64429
2.497971
2.357817
2.230639
2.082049
1.904585
1.749831
1.629791
1.554847
1.547385
1.586642
1.612272
1.67067
1.797198
1.89615
1.94741
1.98764
2.057068
2.15894
2.248158
2.324076
2.412321
2.499593
2.590434
2.678356
2.734482
2.752326
2.732211
2.660836
2.553774
2.428867
2.263407
2.086267
1.91594
1.771243
1.675212
1.638226
1.662883
1.740747
1.883172
2.050904
2.205982
2.32732
2.422379
2.493105
2.509975
2.477856
2.394153
2.245887
2.050255
1.817313
1.603188
1.456869
1.4108
1.425075
1.46498
1.542195
1.622654
1.718037
1.830939
1.967525
2.09892
2.133309
2.019109
1.789412
1.526622
1.29076
1.140224
1.093505
1.108105
1.19635
1.28492
1.283622
1.20511
1.097074
1.03673
0.976061
0.910202
0.923828
1.024077
1.20511
1.390685
1.455247
1.428643
1.391658
1.289462
1.159041
1.082475
1.076311
1.162285
1.31931
1.514293
1.707655
1.880577
2.019109
2.081076
2.094378
2.057392
1.919184
1.69338
1.405933
1.11654
0.908904
0.8398
0.894629
1.063333
1.350455
1.654124
1.862409
2.006781
2.092107
2.109626
2.060312
1.963307
1.803038
1.60773
1.41372
1.254099
1.149632
1.106483
1.152876
1.258641
1.388414
1.534408
1.674887
1.786167
1.853325
1.876035
1.832885
1.745613
1.63628
1.48477
1.309901
1.127571
0.950107
0.779456
0.619835
0.50304
0.422905
0.416417
0.527048
0.747013
1.049058
1.358566
1.60773
1.742693
1.776759
1.711872
1.552901
1.362784
1.169098
0.927721
0.664607
0.478708
0.401168
0.487467
0.767776
1.126922
1.527271
1.83321
1.850405
1.673265
1.43059
1.170071
0.932263
0.713272
0.5543
0.488441
0.517964
0.636381
0.856022
1.09675
1.332936
1.559389
1.730689
1.86176
1.9672
2.029167
2.006457
1.902314
1.748209
1.551603
1.366028
1.268699
1.300168
1.360513
1.397498
1.429617
1.461087
1.506831
1.569771
1.644391
1.709926
1.754697
1.769621
1.731338
1.665479
1.584695
1.480228
1.380952
1.2966
1.227496
1.175911
1.165205
1.181102
1.183698
1.157094
1.104861
1.052627
0.940049
0.72852
0.496551
0.290537
0.170498
0.202292
0.370023
0.613022
0.983848
1.308604
1.440972
1.427346
1.341371
1.274538
1.289787
1.404311
1.588588
1.78195
1.971418
2.046362
1.930539
1.689162
1.362135
1.040623
0.790162
0.622106
0.521857
0.509853
0.599072
0.76291
0.986443
1.21095
1.372841
1.414693
1.27097
0.997798
0.641897
0.316167
0.135783
0.085497
0.248686
0.566304
0.859915
1.029268
1.168449
1.324501
1.500667
1.712197
1.931837
2.143042
2.315965
2.430814
2.461959
2.399993
2.282548
2.107355
1.899718
1.698571
1.520133
1.371219
1.269996
1.23366
1.234958
1.281351
1.383223
1.501641
1.61065
1.692731
1.734583
1.713495
1.63336
1.497423
1.283298
0.975088
0.616915
0.292159
0.116966
0.048511
0.022557
0.263934
0.650007
1.055223
1.401391
1.628493
1.764106
1.834183
1.814717
1.688513
1.394254
0.965031
0.517639
0.207483
0.082901
0.03521
0.016717
0.008606
0.056298
0.220136
0.387218
0.536132
0.653252
0.83688
1.105834
1.398796
1.635306
1.731014
1.719659
1.632387
1.549008
1.521106
1.544466
1.621031
1.720956
1.826721
1.932162
1.98472
1.969471
1.887066
1.685593
1.37057
1.03965
0.758368
0.547163
0.479032
0.543918
0.664607
0.824552
0.990336
1.14509
1.286867
1.449407
1.630116
1.800442
1.93573
2.026896
2.063881
2.023327
1.933135
1.800767
1.608054
1.386467
1.178831
1.005909
0.883274
0.840773
0.863483
0.930316
1.04841
1.197648
1.34786
1.474064
1.561336
1.588264
1.539924
1.44227
1.319959
1.173965
1.020184
0.88814
0.779131
0.715543
0.721707
0.772318
0.861861
0.991634
1.10259
1.116216
1.043219
0.933885
0.72852
0.406684
0.178608
0.074466
0.03229
0.096852
0.354126
0.644168
0.978008
1.250206
1.429617
1.570745
1.685593
1.766701
1.792332
1.750804
1.647635
1.484446
1.315092
1.192782
1.10259
1.030241
0.991958
0.978008
0.97379
1.019535
1.12238
1.242744
1.394578
1.55063
1.676185
1.753075
1.782923
1.761835
1.68462
1.567825
1.398147
1.177533
0.929992
0.691859
0.493307
0.37197
0.345366
0.395978
0.510177
0.686344
0.855697
0.976386
1.064956
1.131788
1.144117
1.094803
0.990012
0.827796
0.647736
0.473192
0.344069
0.292808
0.306759
0.385271
0.486494
0.61724
0.7827
0.941347
1.05944
1.123029
1.125949
1.021806
0.83104
0.586743
0.302866
0.121833
0.04916
0.021908
0.010228
0.005686
0.003415
0.003091
0.006984
0.149085
0.273991
0.333362
0.37489
0.411875
0.456646
0.509204
0.55138
0.625026
0.713272
0.795353
0.843369
0.844342
0.8398
0.844666
0.844342
0.804437
0.720734
0.614644
0.54846
0.535483
0.492334
0.471895
0.586419
0.721382
0.818063
0.855697
0.89982
0.948809
1.015966
1.108429
1.180129
1.247935
1.328718
1.403662
1.452651
1.452003
1.357268
1.137304
0.863808
0.57993
0.307083
0.146165
0.118589
0.202941
0.351206
0.517964
0.683424
0.842071
1.028619
1.220034
1.393605
1.515267
1.560363
1.520133
1.412097
1.273565
1.101292
0.901442
0.668176
0.417714
0.199372
0.081279
0.034885
0.033912
0.221109
0.496551
0.768101
0.890087
0.816116
0.647088
0.440425
0.286644
0.284373
0.388516
0.553976
0.75707
0.955622
1.101941
1.223603
1.33618
1.434483
1.567176
1.736854
1.888688
1.988613
2.036304
2.029167
1.931513
1.751453
1.513645
1.211274
0.850506
0.479356
0.205861
0.083874
0.037481
0.201643
0.526723
0.91961
1.324176
1.633684
1.821855
1.897772
1.880577
1.797847
1.679105
1.518187
1.314119
1.095452
0.907282
0.758043
0.668176
0.666878
0.723329
0.824876
0.982225
1.147686
1.261561
1.271943
1.12822
0.780105
0.375538
0.146814
0.059218
0.026126
0.012499
0.009904
0.398573
0.865106
1.222954
1.493854
1.715441
1.922753
2.105733
2.24459
2.332186
2.299743
2.111897
1.851378
1.567825
1.286867
1.08215
1.005585
1.034783
1.1253
1.246962
1.350455
1.420208
1.523053
1.646662
1.758591
1.832885
1.869546
1.871817
1.832237
1.750804
1.596375
1.3391
0.985145
0.599396
0.266854
0.105936
0.044294
0.035534
0.386893
0.828769
1.248908
1.591833
1.834832
2.000292
2.086916
2.092431
2.011972
1.842943
1.640497
1.457518
1.31055
1.187266
1.101941
1.019535
0.833636
0.5689
0.27756
0.108856
0.044943
0.020286
0.188341
0.675313
1.139575
1.454598
1.668074
1.756644
1.787789
1.790709
1.758591
1.711872
1.673589
1.659639
1.650555
1.565229
1.418262
1.25345
1.138602
1.095452
1.129193
1.250206
1.403338
1.511374
1.601241
1.695651
1.749831
1.770919
1.791034
1.805633
1.852676
1.950654
2.045713
2.135256
2.18457
2.176459
2.106706
1.985044
1.821855
1.610001
1.393605
1.200244
1.069498
0.994878
0.975412
1.031215
1.140224
1.297573
1.489637
1.6817
1.830614
1.937677
2.001266
1.990884
1.935406
1.841321
1.692731
1.525
1.357593
1.211274
1.095777
1.042894
1.050681
1.097723
1.21095
1.361811
1.51624
1.653475
1.766053
1.831912
1.827695
1.771568
1.663532
1.508129
1.338451
1.18824
1.072093
0.98547
0.941996
0.884896
0.815143
0.797624
0.801517
0.819685
0.900144
1.037054
1.172667
1.275836
1.318661
1.267401
1.18824
1.128544
1.103563
1.115242
1.132762
1.140548
1.115242
1.072417
1.034135
0.965679
0.872568
0.784322
0.723329
0.693806
0.711325
0.731115
0.728195
0.753826
0.832662
0.97671
1.131464
1.324825
1.532786
1.698246
1.820233
1.904585
1.931188
1.905558
1.846187
1.729716
1.55063
1.354349
1.142819
0.933561
0.798273
0.77978
0.845315
0.980279
1.162285
1.315741
1.459789
1.609676
1.714468
1.776759
1.81861
1.841645
1.814717
1.775785
1.726796
1.616814
1.467575
1.313146
1.161636
1.018562
0.879056
0.73144
0.618862
0.607183
0.666878
0.768425
0.929668
1.122704
1.304711
1.45622
1.578531
1.661261
1.668074
1.607081
1.457518
1.196026
0.895602
0.647736
0.468975
0.375863
0.451131
0.618862
0.774265
0.838178
0.868999
0.884572
0.935832
1.051329
1.144766
1.210625
1.41372
1.606756
1.67586
1.638875
1.584371
1.512671
1.435781
1.392307
1.331314
1.283622
1.324176
1.435781
1.551603
1.643093
1.665479
1.618436
1.528244
1.409178
1.300817
1.225549
1.197324
1.207381
1.227496
1.26513
1.282
1.294004
1.301791
1.303737
1.29952
1.251179
1.180129
1.092208
0.968924
0.849857
0.763234
0.722356
0.723653
0.783024
0.878732
1.005585
1.17364
1.361486
1.541546
1.692082
1.814068
1.894203
1.91594
1.876359
1.76735
1.566527
1.286218
1.018237
0.801193
0.646439
0.58869
0.608156
0.659416
0.751555
0.875812
1.005909
1.119784
1.220683
1.248259
1.221332
1.21387
1.197324
1.177533
1.173316
1.148983
1.071769
1.014344
1.009802
0.997149
1.013371
1.085395
1.165205
1.199595
1.194404
1.170071
1.132113
1.130491
1.173965
1.245664
1.324176
1.339749
1.303088
1.236904
1.188888
1.179804
1.199919
1.249557
1.229118
1.065604
0.815468
0.557544
0.346988
0.236682
0.281778
0.461837
0.712623
0.95692
1.146388
1.318661
1.488339
1.657692
1.806282
1.941895
2.082049
2.199494
2.291957
2.358141
2.377282
2.328293
2.231612
2.108328
1.934108
1.745938
1.568149
1.407231
1.256695
1.111998
0.999096
0.914744
0.827796
0.797948
0.861212
0.952053
1.051329
1.1824
1.310875
1.444865
1.575611
1.644391
1.621031
1.525
1.382574
1.241771
1.142495
1.083124
1.032188
0.975412
0.894629
0.852777
0.893331
1.004611
1.171369
1.308279
1.428643
1.527595
1.557767
1.491908
1.332287
1.14217
1.000069
0.958542
1.03673
1.232038
1.49353
1.764755
2.012296
2.188139
2.280277
2.291957
2.239074
2.156993
2.034033
1.905234
1.77903
1.653799
1.546412
1.461411
1.431563
1.448758
1.517862
1.630764
1.754373
1.863382
1.95033
1.981475
1.892257
1.740098
1.580478
1.380952
1.19343
1.071769
1.012073
1.005585
1.093505
1.253126
1.45038
1.679105
1.905558
2.09892
2.211498
2.221555
2.125199
1.901016
1.589886
1.230091
0.859266
0.515693
0.306759
0.279507
0.377161
0.565655
0.864781
1.22782
1.589562
1.919509
2.199818
2.38442
2.483047
2.486292
2.3815
2.209551
1.985044
1.71901
1.476984
1.297897
1.199919
1.181426
1.2395
1.374788
1.57334
1.795576
2.002888
2.17289
2.278006
2.281899
2.135905
1.88447
1.587615
1.252153
0.965031
0.798597
0.755448
0.78562
0.881327
1.018886
1.134384
1.222305
1.278107
1.337154
1.343967
1.212572
1.0111
0.795677
0.642221
0.636057
0.771345
1.02505
1.425399
1.789736
2.011647
2.126172
2.185219
2.242643
2.340946
2.454173
2.555071
2.638126
2.670245
2.627095
2.519384
2.317911
1.994777
1.629142
1.28784
1.025375
0.903389
0.937778
1.086692
1.304711
1.529542
1.727445
1.8676
1.959414
2.003861
2.000617
1.934108
1.827046
1.68754
1.505209
1.317688
1.161636
1.060089
1.001691
0.975737
0.995527
1.014993
1.022455
1.022779
1.023104
1.03965
1.081826
1.19343
1.293031
1.371219
1.437728
1.468549
1.432212
1.326447
1.185969
1.047112
0.955622
0.890087
0.800219
0.726249
0.705485
0.738253
0.858617
1.093505
1.381925
1.669047
1.933459
2.056095
2.017812
1.888688
1.76735
1.680078
1.637578
1.657043
1.682349
1.690784
1.678456
1.634333
1.538301
1.428968
1.342993
1.280054
1.267401
1.297249
1.335532
1.366677
1.34786
1.306333
1.272267
1.263508
1.269996
1.281351
1.310226
1.330016
1.352402
1.37057
1.380952
1.374139
1.342993
1.303737
1.249233
1.184995
1.143144
1.138277
1.162285
1.21679
1.31931
1.444216
1.5821
1.744316
1.898096
2.017812
2.088213
2.089836
2.015865
1.898745
1.734258
1.49353
1.214843
0.926748
0.69705
0.572468
0.579281
0.704512
0.908904
1.150281
1.37349
1.540248
1.66191
1.709926
1.640497
1.471793
1.267725
0.971844
0.547812
0.217216
0.086794
0.036832
0.017366
0.009255
0.095229
0.528021
0.990985
1.377383
1.712197
1.992182
2.191058
2.257891
2.139798
1.906856
1.622978
1.309901
1.013371
0.769398
0.586094
0.446264
0.37197
0.370347
0.461513
0.653901
0.916041
1.243717
1.589237
1.861435
2.006781
2.040846
1.996724
1.888039
1.719983
1.523053
1.3537
1.22782
1.145415
1.122055
1.143468
1.216465
1.338451
1.479579
1.610974
1.702139
1.742693
1.706033
1.608703
1.464007
1.279729
1.097723
0.940374
0.8398
0.778158
0.771994
0.812872
0.885869
0.969573
0.962435
0.868999
0.739551
0.620484
0.565006
0.60556
0.706134
0.795028
0.858941
0.872568
0.855048
0.82812
0.816441
0.84856
0.898198
0.970221
1.055223
1.151254
1.25053
1.295626
1.294653
1.218736
1.04549
0.80249
0.534834
0.305786
0.152978
0.104638
0.157196
0.249983
0.37197
0.489414
0.615942
0.766478
0.928045
1.088315
1.248259
1.381276
1.463033
1.488014
1.426048
1.269347
1.046463
0.787891
0.550083
0.36613
0.213971
0.103989
0.048511
0.051756
0.166929
0.345042
0.538727
0.718463
0.854724
0.904686
0.8969
0.844991
0.76583
0.696726
0.658118
0.656496
0.680504
0.749608
0.811899
0.815143
0.81125
0.820334
0.847262
0.901118
1.008829
1.103887
1.145739
1.162285
1.147686
1.108105
1.038677
0.96276
0.907606
0.907931
0.969248
1.04257
1.138277
1.209003
1.258317
1.323203
1.369272
1.332287
1.175262
0.935507
0.639301
0.333687
0.140001
0.059542
0.12605
0.376187
0.679855
0.965031
1.184022
1.356295
1.494503
1.539924
1.464655
1.354673
1.259615
1.202839
1.199919
1.188888
1.187915
1.265779
1.306008
1.277783
1.232038
1.231389
1.272267
1.346238
1.447785
1.548683
1.6392
1.727445
1.794603
1.7959
1.743342
1.656395
1.532462
1.410475
1.30763
1.209328
1.12238
1.078906
1.083448
1.105509
1.156121
1.235282
1.313146
1.372517
1.40496
1.412422
1.367326
1.301791
1.218087
1.089612
0.94524
0.832014
0.763234
0.748635
0.813845
0.966653
1.1824
1.432537
1.662883
1.851703
1.989586
2.07329
2.067125
1.921131
1.665154
1.327096
0.944591
0.595179
0.329469
0.165631
0.14941
0.264583
0.467353
0.771669
1.168449
1.575287
1.931188
2.217337
2.400317
2.468772
2.449306
2.360088
2.175161
1.891283
1.527595
1.16488
0.872243
0.707756
0.741497
0.948809
1.218087
1.477308
1.682998
1.831912
1.942219
2.016514
2.0243
1.972716
1.821206
1.574962
1.304386
1.057494
0.857319
0.717489
0.662985
0.684073
0.765505
0.941671
1.164556
1.422479
1.709926
1.975311
2.144016
2.164131
2.060637
1.874737
1.65607
1.438052
1.251179
1.132437
1.066578
1.083448
1.172018
1.308604
1.499045
1.693704
1.856569
1.974013
2.046037
2.072316
2.039224
1.952601
1.800118
1.615192
1.423453
1.238851
1.058467
0.89398
0.763883
0.702565
0.726249
0.812548
0.929019
1.031215
1.100643
1.168125
1.277134
1.415991
1.527271
1.583722
1.605459
1.584371
1.506183
1.382574
1.253775
1.093181
0.938427
0.852777
0.80541
0.84564
1.006233
1.209003
1.392956
1.545439
1.676185
1.721605
1.674563
1.582424
1.488663
1.410151
1.35662
1.36765
1.43059
1.531164
1.695002
1.862733
1.980178
2.035655
2.045388
1.961361
1.766701
1.495801
1.17364
0.86543
0.625026
0.489738
0.498174
0.634759
0.846613
1.082475
1.332612
1.577558
1.792007
1.955845
2.037602
2.019758
1.912371
1.761186
1.572367
1.30763
0.994229
0.678233
0.403115
0.212349
0.207483
0.420959
0.74831
1.135357
1.507805
1.848134
2.108977
2.260162
2.302014
2.255296
2.154722
1.975311
1.652826
1.224251
0.770696
0.333687
0.131566
0.054351
0.024503
0.012175
0.007309
0.146165
0.63703
1.25637
1.815691
2.221231
2.479479
2.56156
2.482074
2.324724
2.135905
1.950005
1.787789
1.671643
1.619085
1.612272
1.6392
1.709926
1.800767
1.885443
1.937353
1.923726
1.785843
1.521431
1.114269
0.629244
0.25777
0.103016
0.043645
0.020286
0.012499
0.342122
0.833311
1.309901
1.693055
1.996075
2.226097
2.382149
2.469421
2.46715
2.35587
2.127145
1.853325
1.584046
1.341696
1.153525
1.023428
0.953675
0.914095
0.908255
1.013695
1.230416
1.481201
1.715441
1.915291
2.046362
2.074587
2.026247
1.906856
1.749182
1.578206
1.381601
1.173965
1.001042
0.916041
0.911499
1.002665
1.184671
1.40496
1.609352
1.746911
1.763781
1.667425
1.513645
1.330989
1.115567
0.893656
0.711001
0.600369
0.566304
0.645141
0.821956
1.02797
1.259939
1.452976
1.597997
1.649906
1.550954
1.296275
0.912473
0.513097
0.233437
0.098149
0.042023
0.021908
0.20651
0.541647
0.964057
1.294978
1.51624
1.670021
1.705059
1.57042
1.326123
1.054574
0.794704
0.560789
0.398897
0.304163
0.289888
0.36613
0.51991
0.752528
1.036081
1.338776
1.609676
1.82153
1.987964
2.117737
2.201765
2.239399
2.226421
2.135256
1.997697
1.824126
1.607081
1.384196
1.174938
1.001691
0.874514
0.80833
0.799246
0.823903
0.903064
1.034783
1.186942
1.327421
1.43059
1.480877
1.466602
1.408853
1.29952
1.143792
0.972817
0.810926
0.674664
0.581228
0.557869
0.592259
0.675962
0.816116
0.977035
1.113945
1.137953
0.998771
0.773616
0.503689
0.258419
0.122482
0.100096
0.083226
0.07479
0.167902
0.327522
0.53159
0.752203
0.969248
1.181426
1.363433
1.454598
1.439674
1.342345
1.169747
0.962435
0.777509
0.63703
0.479356
0.33466
0.242521
0.204239
0.253228
0.404737
0.627297
0.935507
1.248908
1.494179
1.691433
1.842294
1.93865
1.95325
1.867275
1.667101
1.377383
1.041921
0.700943
0.428745
0.279831
0.275938
0.3976
0.635732
0.955298
1.291084
1.593779
1.822504
1.961036
1.996399
1.959414
1.8676
1.71317
1.518187
1.325474
1.163583
1.034783
0.958218
0.950756
0.988065
1.072742
1.198621
1.323203
1.408529
1.446487
1.395876
1.228145
1.002989
0.767776
0.535159
0.392084
0.360939
0.401168
0.494929
0.638004
0.809628
0.984821
1.167151
1.339749
1.477957
1.527595
1.453625
1.291733
1.064956
0.793406
0.478708
0.20067
0.079981
0.033912
0.016068
0.008282
0.005362
0.067653
0.333038
0.60848
0.916041
1.241771
1.530515
1.752751
1.885768
1.934433
1.921455
1.847485
1.749182
1.660937
1.567825
1.47082
1.384845
1.282649
1.095777
0.917015
0.808979
0.779131
0.88522
1.124651
1.378032
1.63336
1.808553
1.823153
1.711548
1.543168
1.368624
1.217438
1.09675
1.029592
1.014344
1.044192
1.129193
1.247286
1.383223
1.514618
1.622329
1.674887
1.63044
1.531164
1.403662
1.255072
1.104861
0.970546
0.873541
0.819036
0.827796
0.890087
1.004936
1.168449
1.342669
1.495152
1.607081
1.661585
1.627196
1.500667
1.288489
0.990336
0.656172
0.320709
0.126699
0.05208
0.022557
0.011526
0.00666
0.230842
0.709703
1.155472
1.511049
1.752426
1.854947
1.83321
1.717388
1.555821
1.368624
1.190186
1.0111
0.838502
0.726249
0.705485
0.681153
0.613671
0.485521
0.346015
0.297675
0.339202
0.487143
0.784322
1.081502
1.346238
1.514293
1.53311
1.518511
1.51332
1.526297
1.55063
1.602539
1.674563
1.745613
1.787789
1.752751
1.6817
1.620383
1.580478
1.583722
1.626547
1.67586
1.704086
1.682349
1.594104
1.472766
1.359864
1.275187
1.229442
1.210625
1.243069
1.326123
1.428643
1.521106
1.591508
1.621356
1.590859
1.522404
1.437079
1.316714
1.174938
1.031863
0.906957
0.81417
0.780105
0.818387
0.908904
1.051654
1.22782
1.414044
1.569447
1.67586
1.725499
1.689487
1.578531
1.403987
1.184671
0.945889
0.721707
0.579606
0.522506
0.54035
0.601018
0.712947
0.887491
1.08507
1.290436
1.498072
1.649257
1.70441
1.69338
1.605134
1.400093
1.0682
0.654874
0.297999
0.11794
0.048511
0.021584
0.010553
0.042347
0.418688
0.900793
1.403338
1.847485
2.180028
2.372416
2.453848
2.427569
2.275411
2.05577
1.803687
1.512022
1.188564
0.891385
0.679206
0.590637
0.675962
0.928694
1.277134
1.69922
2.037926
2.246536
2.319858
2.300716
2.2102
2.052526
1.865978
1.68754
1.521755
1.374788
1.301466
1.268374
1.260912
1.311848
1.39328
1.476659
1.549008
1.617463
1.65315
1.65023
1.621356
1.540897
1.408204
1.261886
1.146388
1.067875
1.01986
1.015642
1.010775
1.010451
1.043219
1.1107
1.224576
1.418586
1.665803
1.854298
1.945139
1.926646
1.780003
1.559065
1.28492
0.932587
0.543918
0.231491
0.092634
0.038778
0.01769
0.234411
0.709703
1.203812
1.6392
1.976609
2.18457
2.300392
2.332511
2.279304
2.166726
2.028518
1.891608
1.774812
1.71609
1.717712
1.767675
1.8676
1.983422
2.088862
2.155695
2.167699
2.114492
2.014567
1.89615
1.732312
1.537977
1.358242
1.232038
1.155796
1.115567
1.133411
1.181426
1.258641
1.369597
1.497747
1.603188
1.685269
1.746587
1.773514
1.769621
1.710575
1.575935
1.399769
1.222629
1.090586
1.006882
0.97671
1.013695
1.08215
1.168449
1.248259
1.305035
1.34494
1.400742
1.450056
1.474064
1.499045
1.501316
1.452976
1.386792
1.303737
1.207705
1.13633
1.092208
1.022455
0.983199
1.04841
1.180453
1.372517
1.629791
1.883821
2.043117
2.042144
1.889661
1.61876
1.29952
1.027646
0.884572
0.878083
0.939076
1.051005
1.183698
1.348509
1.555496
1.779354
1.985044
2.145638
2.222853
2.170295
1.996724
1.764106
1.483148
1.162285
0.848884
0.612049
0.487143
0.523479
0.73436
1.029592
1.354024
1.652501
1.89323
2.065828
2.194627
2.252376
2.198196
2.042793
1.826721
1.589886
1.369272
1.191159
1.079231
1.031539
1.063009
1.150605
1.269672
1.458491
1.687864
1.900367
2.066476
2.18457
2.230315
2.196574
2.098595
1.933784
1.736529
1.538301
1.367001
1.248908
1.182724
1.140548
1.115242
1.123678
1.143792
1.177209
1.23658
1.313795
1.373166
1.384196
1.417288
1.473739
1.482499
1.478606
1.480228
1.442594
1.380628
1.351753
1.344616
1.328718
1.341371
1.371868
1.398147
1.39328
1.380628
1.359215
1.236255
0.971519
0.611076
0.2688
0.106909
0.044618
0.074141
0.5118
1.056196
1.561012
1.946112
2.245239
2.468772
2.622878
2.704959
2.719558
2.662134
2.547609
2.405832
2.239074
2.050255
1.842943
1.613245
1.389712
1.238851
1.198946
1.254748
1.405933
1.602539
1.780328
1.906207
1.9672
1.962983
1.888363
1.777083
1.641795
1.479255
1.292382
1.073391
0.874839
0.705485
0.578633
0.536132
0.594205
0.762261
1.015642
1.294329
1.524026
1.703762
1.828343
1.88447
1.883172
1.807255
1.617787
1.317688
0.943618
0.581877
0.298324
0.134486
0.057271
0.024828
0.012175
0.061164
0.494929
1.067551
1.638875
2.095027
2.42173
2.586866
2.549556
2.388962
2.175486
1.964929
1.784221
1.654124
1.586317
1.56166
1.589562
1.669372
1.768324
1.852676
1.911722
1.933784
1.880901
1.780976
1.644066
1.428643
1.178182
0.968924
0.814494
0.708405
0.692184
0.760639
0.852453
0.994878
1.184995
1.389387
1.566527
1.689487
1.744316
1.712846
1.631089
1.47601
1.260588
1.004936
0.746364
0.546838
0.430367
0.448211
0.58869
0.795028
1.029917
1.255397
1.452003
1.611947
1.736529
1.803038
1.7959
1.709601
1.53311
1.310226
1.075986
0.867377
0.71976
0.629244
0.536132
0.425825
0.3259
0.209754
0.111451
0.152654
0.383
0.747986
1.089288
1.349482
1.573989
1.692731
1.67067
1.563607
1.430914
1.321581
1.248584
1.197648
1.124002
1.017264
0.876785
0.73436
0.637679
0.644168
0.794055
0.924477
0.970221
0.992283
0.966653
0.826498
0.605236
0.39468
0.249334
0.209429
0.311625
0.543918
0.890087
1.252477
1.581775
1.853974
2.035331
2.10184
2.079778
1.994453
1.857542
1.709277
1.562958
1.423777
1.318661
1.266428
1.269023
1.301466
1.37933
1.505858
1.648608
1.778705
1.8676
1.902963
1.861111
1.761835
1.619409
1.434808
1.251179
1.089288
0.969897
0.900793
0.893007
0.936481
1.006233
1.101616
1.184022
1.202839
1.182075
1.112323
0.908579
0.556247
0.239926
0.095229
0.039752
0.018664
0.00958
0.006011
0.004064
0.003091
0.003415
0.365481
0.946214
1.465629
1.865329
2.120332
2.164779
1.99867
1.703762
1.356944
0.995852
0.706783
0.539701
0.487143
0.535808
0.637355
0.786593
1.009478
1.272592
1.546412
1.79882
1.991208
2.111248
2.147909
2.083996
1.912696
1.637578
1.301791
0.978008
0.720734
0.552354
0.482276
0.518937
0.655198
0.863808
1.153525
1.451678
1.715117
1.926646
2.072641
2.147909
2.14142
2.072641
1.938001
1.738476
1.495476
1.248908
1.041921
0.894953
0.839476
0.846613
0.910202
1.036406
1.190186
1.356295
1.514293
1.639849
1.68462
1.628493
1.466278
1.177209
0.805735
0.442047
0.185097
0.074466
0.031641
0.018664
0.231815
0.576037
0.926099
1.189862
1.340398
1.391983
1.309577
1.119136
0.86251
0.568575
0.308057
0.146814
0.097176
0.212349
0.441074
0.772643
1.137953
1.419235
1.67067
1.869871
2.011972
2.088538
2.102164
2.048633
1.920482
1.759564
1.564905
1.333261
1.107456
0.919286
0.787242
0.720085
0.738902
0.814819
0.911175
1.014993
1.092208
1.154499
1.211923
1.269023
1.305359
1.313795
1.303737
1.24534
1.152228
1.051654
0.983848
0.964382
0.988065
1.055223
1.136655
1.235931
1.342993
1.409826
1.416315
1.382574
1.332612
1.269023
1.2249
1.200892
1.158392
1.118487
1.058791
0.981901
0.88522
0.787891
0.695752
0.589663
0.455997
0.310003
0.208781
0.181528
0.249334
0.392084
0.501093
0.571171
0.580579
0.500445
0.420634
0.433287
0.559816
0.763559
0.962435
1.088963
1.167476
1.272267
1.396849
1.481201
1.514293
1.501641
1.440647
1.353375
1.260912
1.109403
0.899171
0.665256
0.470272
0.388191
0.41155
0.543594
0.754474
0.987092
1.177533
1.309901
1.395551
1.456545
1.509751
1.527595
1.490934
1.419884
1.30763
1.186293
1.053925
0.930965
0.835907
0.795677
0.78562
0.769723
0.766154
0.786918
0.834285
0.91377
1.016615
1.108754
1.163258
1.174613
1.123353
0.98547
0.802166
0.622431
0.476112
0.381378
0.359966
0.395329
0.48325
0.64871
0.847262
1.03673
1.191484
1.272267
1.255721
1.190511
1.117838
1.004287
0.861537
0.736306
0.640599
0.581552
0.557869
0.563709
0.559167
0.575713
0.613671
0.635084
0.638328
0.604911
0.566304
0.497525
0.394031
0.278858
0.158169
0.073817
0.032939
0.017041
0.043645
0.147139
0.286644
0.435883
0.63411
0.848884
1.030566
1.152876
1.249557
1.338127
1.376734
1.317688
1.163583
0.933885
0.660714
0.418688
0.219162
0.091985
0.037805
0.017041
0.007957
0.005038
0.194181
0.53159
0.867377
1.205434
1.517538
1.640497
1.5821
1.39328
1.166503
0.936481
0.733062
0.595827
0.516666
0.50304
0.554625
0.672069
0.848884
1.047436
1.236255
1.407555
1.51916
1.540572
1.500018
1.405609
1.255072
1.078906
0.880029
0.706459
0.577984
0.499471
0.488116
0.524452
0.612698
0.740848
0.8969
1.051654
1.198946
1.303413
1.331314
1.314119
1.238526
1.095128
0.929019
0.776536
0.666878
0.609778
0.635084
0.727547
0.834609
0.932912
0.981901
0.969897
0.917015
0.850182
0.769398
0.710676
0.735982
0.81709
0.896251
0.953027
1.018886
1.086368
1.135682
1.191159
1.221007
1.226847
1.233336
1.215492
1.148983
1.077284
1.024077
0.966653
0.985145
1.105509
1.215167
1.277458
1.314119
1.331963
1.330341
1.348509
1.408529
1.497099
1.62168
1.754373
1.873764
1.956494
2.000292
1.987315
1.895825
1.759564
1.580478
1.388738
1.227171
1.108105
1.010451
0.953675
0.982874
1.08215
1.233984
1.412097
1.573989
1.711548
1.816988
1.883172
1.896474
1.872791
1.833859
1.762484
1.671967
1.542519
1.375437
1.169098
0.930965
0.733711
0.601992
0.558842
0.67142
0.938752
1.266428
1.606108
1.923402
2.139798
2.240048
2.264704
2.216364
2.11579
1.971418
1.818935
1.682349
1.562634
1.405933
1.214194
1.091234
1.094154
1.21387
1.436754
1.718037
1.983097
2.159588
2.173863
2.022029
1.776759
1.511049
1.285569
1.114918
1.004936
0.975088
1.036081
1.209328
1.511374
1.845214
2.153749
2.425947
2.667
2.812995
2.83311
2.753624
2.576808
2.353274
2.120657
1.925997
1.815042
1.791683
1.849756
1.946112
2.074263
2.23875
2.399019
2.536254
2.64721
2.718261
2.720856
2.656294
2.531388
2.348732
2.149207
1.970769
1.837103
1.750804
1.68754
1.611623
1.506183
1.402689
1.311524
1.267076
1.278432
1.34494
1.447136
1.587615
1.747235
1.888688
2.012945
2.054148
2.009701
1.924375
1.826072
1.736854
1.654772
1.58502
1.541221
1.454598
1.319959
1.187591
1.093505
1.058467
1.151903
1.397822
1.650555
1.846187
1.985693
2.060312
2.082698
2.104111
2.133309
2.142718
2.149207
2.158291
2.142394
2.12455
2.125199
2.129741
2.105408
2.059015
1.962658
1.776759
1.557118
1.353375
1.19635
1.151579
1.231389
1.369921
1.515916
1.694029
1.866951
1.990559
2.071343
2.125523
2.131363
2.056419
1.923078
1.744316
1.530191
1.317688
1.148983
1.038028
0.974764
0.994554
1.055547
1.134708
1.244691
1.348509
1.429941
1.481201
1.486717
1.444865
1.364406
1.223927
0.99131
0.669473
0.317465
0.125077
0.051107
0.022557
0.011202
0.00666
0.004389
0.005038
0.273667
0.616915
0.930965
1.165529
1.307955
1.397174
1.428643
1.389063
1.331963
1.257343
1.140224
0.970221
0.803139
0.685695
0.59453
0.566304
0.624053
0.759665
0.940698
1.117838
1.230091
1.238526
1.180778
1.077933
0.908904
0.70289
0.527372
0.455024
0.457944
0.531266
0.650007
0.793082
0.959515
1.096101
1.194728
1.262859
1.305684
1.307955
1.258317
1.160338
1.014344
0.84856
0.670771
0.496876
0.343744
0.222407
0.161414
0.153627
0.210727
0.327522
0.47449
0.628919
0.772967
0.890087
0.946538
0.953027
0.911824
0.812872
0.678882
0.482276
0.248686
0.102367
0.041049
0.018015
0.008606
0.004389
0.003091
0.219162
0.575388
0.866728
1.108429
1.316066
1.385818
1.273241
1.046138
0.77686
0.511151
0.288915
0.166604
0.188666
0.318763
0.549758
0.869648
1.204786
1.493854
1.723228
1.856569
1.846836
1.678456
1.408853
1.09383
0.835258
0.661363
0.597125
0.66266
0.787566
0.854724
0.890736
0.974764
1.131788
1.328394
1.515591
1.634009
1.688513
1.670021
1.550305
1.317039
0.971195
0.602316
0.280155
0.1121
0.046565
0.042672
0.375538
0.775887
1.165529
1.488014
1.74464
1.930539
2.045388
2.097622
2.079454
2.004834
1.873439
1.690135
1.497423
1.331963
1.19927
1.10778
1.087341
1.12238
1.19343
1.274538
1.297249
1.261561
1.200892
1.136979
1.051329
0.920908
0.762585
0.598747
0.484223
0.458268
0.552678
0.727871
0.924477
1.12238
1.271294
1.404635
1.528568
1.607081
1.644066
1.66775
1.683971
1.688189
1.674887
1.631413
1.587291
1.511374
1.358566
1.157094
0.914744
0.664282
0.481952
0.392733
0.409279
0.526723
0.738577
1.002016
1.283947
1.493205
1.617787
1.683322
1.672616
1.60189
1.516564
1.452976
1.410475
1.386143
1.418586
1.478606
1.540248
1.620383
1.698571
1.778381
1.85008
1.905558
1.895176
1.831588
1.756644
1.627196
1.429292
1.21679
1.043543
0.916041
0.834933
0.818063
0.851155
0.940049
1.092532
1.249882
1.365379
1.44746
1.514293
1.550305
1.560363
1.558741
1.518511
1.451354
1.341047
1.174613
0.991958
0.813521
0.651305
0.527697
0.491685
0.537754
0.696077
0.952378
1.231713
1.466278
1.619409
1.708628
1.72193
1.646662
1.512671
1.381276
1.282325
1.254424
1.306008
1.40496
1.507805
1.614543
1.690135
1.683322
1.611299
1.534408
1.456869
1.427995
1.497747
1.525649
1.468224
1.368624
1.2395
1.114269
1.068849
1.138602
1.31055
1.590535
1.863707
2.028518
2.133309
2.210849
2.23583
2.179054
2.067774
1.903287
1.673265
1.42183
1.134384
0.789513
0.458917
0.24317
0.2117
0.376836
0.710352
1.133086
1.558741
1.936055
2.218635
2.362034
2.367549
2.27314
2.11579
1.909776
1.697922
1.514942
1.369921
1.271943
1.245988
1.274538
1.337478
1.452327
1.597672
1.75632
1.901016
2.014243
2.083023
2.102813
2.079454
1.987315
1.848134
1.685918
1.509427
1.340398
1.211599
1.155472
1.163907
1.267401
1.455247
1.667101
1.852351
1.987964
2.075561
2.084645
1.995426
1.756644
1.404311
1.032837
0.677909
0.353477
0.14941
0.064084
0.092634
0.278858
0.578308
0.987416
1.414693
1.770595
2.050255
2.250105
2.325373
2.262109
2.020407
1.605459
1.064631
0.505311
0.196777
0.079657
0.033912
0.016717
0.196777
0.674664
1.157743
1.584695
1.931513
2.197223
2.386691
2.488887
2.498296
2.40421
2.260487
2.084969
1.91302
1.74464
1.563283
1.421506
1.340398
1.335207
1.425075
1.609676
1.829966
2.043117
2.221555
2.32148
2.339973
2.270869
2.096973
1.891283
1.701166
1.545114
1.427346
1.366677
1.371868
1.415991
1.506831
1.626871
1.755671
1.868573
1.938975
1.954223
1.869546
1.699868
1.475037
1.218736
0.976061
0.794055
0.690237
0.675313
0.749608
0.868026
0.980928
1.087341
1.17364
1.225225
1.266103
1.341371
1.430914
1.471793
1.447136
1.314443
1.070795
0.770047
0.525426
0.393707
0.322007
0.321683
0.387542
0.54846
0.800868
1.096425
1.382899
1.608379
1.7534
1.814393
1.804011
1.747884
1.652501
1.542195
1.408204
1.274863
1.144117
1.049058
1.012398
0.990661
1.008829
1.116865
1.254099
1.347536
1.39328
1.383547
1.310226
1.263832
1.252477
1.230091
1.212247
1.202515
1.215816
1.268699
1.350455
1.439999
1.54479
1.684945
1.828019
1.946112
2.02722
2.066801
2.037602
1.94741
1.820882
1.649581
1.458491
1.267076
1.097074
0.966977
0.893656
0.897549
0.963733
1.083124
1.241446
1.383223
1.467251
1.473739
1.428319
1.333261
1.190835
0.970546
0.713921
0.470597
0.263934
0.134486
0.161738
0.307408
0.556247
0.858617
1.115242
1.292707
1.40496
1.478282
1.515267
1.517862
1.474064
1.406582
1.301791
1.166827
1.07404
1.039325
1.051329
1.095452
1.204461
1.322879
1.41891
1.497423
1.525973
1.51624
1.483472
1.420208
1.314119
1.217763
1.165205
1.157743
1.185644
1.176236
1.149957
1.151903
1.179804
1.244042
1.318986
1.381601
1.445514
1.503263
1.531164
1.543492
1.53603
1.500667
1.451354
1.389712
1.302115
1.219709
1.149308
1.097399
1.053276
1.036081
1.057169
1.107132
1.206732
1.369597
1.568798
1.755671
1.909776
1.994453
1.986991
1.926646
1.82445
1.661585
1.471144
1.266752
1.000069
0.713596
0.502716
0.410577
0.490387
0.773616
1.13925
1.454274
1.688838
1.79006
1.738476
1.619409
1.514293
1.422479
1.31347
1.203812
1.105509
0.980279
0.819361
0.683748
0.610102
0.627946
0.733386
0.903713
1.09675
1.263832
1.398796
1.475686
1.525
1.535057
1.472117
1.395876
1.346562
1.314768
1.257992
1.224251
1.233984
1.273565
1.366353
1.49353
1.62168
1.721281
1.785194
1.810824
1.786816
1.730689
1.638551
1.500343
1.349482
1.215167
1.104536
1.010127
0.973466
0.998771
1.072417
1.201541
1.355646
1.514293
1.657368
1.763457
1.809851
1.773514
1.65607
1.451354
1.191808
0.90274
0.639626
0.450482
0.346015
0.357695
0.448211
0.529643
0.598747
0.664931
0.678233
0.664607
0.691859
0.704836
0.728195
0.800868
0.880029
0.939076
1.014669
1.126922
1.258317
1.358242
1.446487
1.51624
1.562309
1.583397
1.590859
1.595077
1.604485
1.620383
1.597997
1.544141
1.469197
1.386792
1.330341
1.248584
1.138602
1.04841
1.002989
0.956271
0.93129
0.993256
1.100643
1.241122
1.416964
1.589237
1.662883
1.584695
1.379005
1.09091
0.771669
0.491685
0.318114
0.308057
0.435234
0.689264
1.008504
1.321581
1.592806
1.798496
1.935406
2.012945
2.060961
2.055121
2.006457
1.9101
1.760213
1.596375
1.408529
1.223927
1.085719
1.011749
0.990985
1.007531
1.071444
1.136979
1.221332
1.313146
1.400093
1.499045
1.591508
1.649906
1.652501
1.570745
1.39036
1.170396
0.981901
0.859915
0.795028
0.728195
0.657469
0.628271
0.640923
0.704512
0.840449
1.024077
1.226847
1.425399
1.529866
1.501316
1.426048
1.337478
1.225549
1.103887
0.981577
0.858617
0.723978
0.624377
0.62016
0.675638
0.758692
0.883923
1.030241
1.141846
1.241122
1.349482
1.451678
1.557443
1.625898
1.639524
1.626871
1.624925
1.64731
1.685593
1.759564
1.828668
1.816664
1.708304
1.54771
1.365055
1.193755
1.133735
1.18532
1.234633
1.257992
1.254099
1.241771
1.24242
1.282
1.354349
1.4533
1.580478
1.706033
1.815042
1.889986
1.905883
1.850729
1.747235
1.608703
1.429292
1.245664
1.072742
0.941996
0.865754
0.849208
0.906633
1.003962
1.127246
1.278756
1.430266
1.565878
1.670345
1.729392
1.719983
1.66775
1.548359
1.33618
1.102914
0.897224
0.698672
0.512448
0.402142
0.411226
0.538727
0.768425
1.03673
1.295951
1.495152
1.595077
1.533759
1.31055
1.000069
0.603289
0.240575
0.095229
0.040076
0.018015
0.00958
0.066031
0.558518
1.103563
1.566527
1.902638
2.118386
2.155371
2.071019
1.917238
1.7534
1.620707
1.499694
1.417288
1.37933
1.352402
1.364406
1.428968
1.563607
1.72777
1.894852
2.059663
2.205009
2.311098
2.375336
2.396424
2.354572
2.265678
2.132012
1.939948
1.728418
1.521755
1.345264
1.21095
1.147361
1.164232
1.233984
1.345589
1.47893
1.611947
1.726147
1.808553
1.840672
1.803038
1.719334
1.585344
1.395876
1.185969
0.976386
0.772643
0.600369
0.504338
0.486494
0.550083
0.701592
0.891385
1.111349
1.331314
1.475362
1.51332
1.448758
1.306008
1.086692
0.80249
0.48033
0.213647
0.08647
0.036183
0.018339
0.200994
0.529319
0.98547
1.407231
1.699868
1.884146
1.981151
1.920807
1.723876
1.416964
0.990661
0.572144
0.278209
0.1546
0.265232
0.620809
1.075337
1.505858
1.901016
2.20436
2.414268
2.548258
2.624175
2.645912
2.59303
2.483696
2.322129
2.103137
1.869222
1.667425
1.507805
1.395551
1.357917
1.377383
1.431563
1.537653
1.658017
1.752102
1.808229
1.853974
1.865004
1.811149
1.718361
1.583073
1.406907
1.196026
0.968599
0.766478
0.62308
0.556571
0.520884
0.546514
0.657794
0.825201
1.031215
1.28784
1.518511
1.655421
1.720956
1.718037
1.600592
1.421182
1.235931
1.05652
0.880678
0.734684
0.643194
0.62308
0.710027
0.825525
0.927721
1.024077
1.112647
1.175911
1.217114
1.239824
1.274214
1.318986
1.314768
1.260263
1.17656
1.069822
0.992607
0.963733
0.98547
1.063009
1.165529
1.295302
1.468549
1.688838
1.840023
1.893879
1.91594
1.866951
1.741071
1.591833
1.463682
1.388738
1.387116
1.45038
1.539924
1.648284
1.763781
1.845538
1.875062
1.854298
1.816988
1.777408
1.743342
1.691758
1.5675
1.387441
1.197648
1.048085
0.946862
0.915068
0.954973
1.040299
1.171045
1.328718
1.479255
1.593455
1.666776
1.697597
1.666776
1.578531
1.415991
1.186293
0.914419
0.583175
0.2688
0.106909
0.043645
0.019961
0.009904
0.006011
0.00374
0.003415
0.329469
0.836231
1.351753
1.754697
2.001266
2.145313
2.171268
2.084645
1.947086
1.770595
1.569771
1.361162
1.177209
1.044841
0.929668
0.834933
0.755448
0.759341
0.873216
1.087666
1.366028
1.658017
1.85884
1.992506
2.060961
2.080103
2.044091
1.973689
1.917562
1.891283
1.903936
1.929566
1.963956
1.983746
1.973365
1.929242
1.87052
1.800118
1.706357
1.591833
1.492232
1.420533
1.378357
1.360837
1.389387
1.452003
1.541546
1.669696
1.806282
1.926971
2.012296
2.066476
2.070045
1.998346
1.870195
1.684945
1.44746
1.176884
0.945565
0.810277
0.783673
0.86835
1.003962
1.164556
1.351104
1.53603
1.691758
1.794927
1.83613
1.775461
1.609028
1.366353
0.997149
0.493631
0.190937
0.077061
0.033263
0.016068
0.008606
0.098474
0.583499
1.228794
1.780976
2.148558
2.374363
2.499593
2.523601
2.464879
2.302339
2.040198
1.742045
1.439025
1.161636
0.935832
0.810926
0.793406
0.861861
1.025699
1.25637
1.506831
1.726472
1.894852
1.995101
2.015216
1.972067
1.885443
1.786816
1.677807
1.572691
1.480553
1.426697
1.439999
1.495152
1.587291
1.71609
1.840023
1.926971
1.951628
1.854947
1.639524
1.367001
1.0682
0.793731
0.625026
0.576037
0.59161
0.675962
0.809303
0.974439
1.180453
1.443243
1.715766
1.949032
2.092107
2.11871
2.008728
1.713495
1.271943
0.809303
0.411875
0.177635
0.123131
0.26069
0.500769
0.873216
1.265779
1.559065
1.782599
1.942868
2.024949
2.014243
1.925673
1.771243
1.558741
1.281027
0.914419
0.512448
0.207807
0.08355
0.036183
0.016717
0.284049
0.816765
1.280054
1.674563
1.979529
2.143691
2.193978
2.171268
2.075885
1.938975
1.778705
1.581775
1.38225
1.22198
1.115242
1.059116
1.063658
1.135682
1.233011
1.353375
1.492232
1.63628
1.76151
1.858191
1.908803
1.901989
1.87863
1.838725
1.750804
1.619085
1.478606
1.34494
1.203812
1.075337
0.983199
0.953351
0.996825
1.10259
1.263832
1.452651
1.596699
1.685918
1.6817
1.610974
1.540572
1.49061
1.477308
1.524675
1.53603
1.459464
1.346887
1.263832
1.203488
1.132762
1.062036
0.963084
0.787242
0.650332
0.647412
0.729493
0.922206
1.131464
1.211923
1.255072
1.31347
1.366353
1.407555
1.429292
1.450056
1.490934
1.541221
1.61876
1.726796
1.859813
1.984071
2.036629
2.034682
1.981475
1.852027
1.686567
1.540897
1.419559
1.318661
1.280378
1.297897
1.352726
1.451354
1.57042
1.691433
1.805958
1.892905
1.923726
1.901989
1.84197
1.729392
1.592806
1.461087
1.360188
1.293031
1.266752
1.288813
1.325799
1.370246
1.445514
1.514293
1.537004
1.539599
1.517538
1.447785
1.339749
1.214194
1.044192
0.860239
0.647088
0.425501
0.233113
0.112424
0.107882
0.248037
0.498498
0.815792
1.154174
1.482175
1.76443
1.97596
2.078805
2.07848
1.983097
1.77319
1.502938
1.231389
0.992283
0.829418
0.844666
0.997474
1.198621
1.375761
1.487366
1.581451
1.675536
1.742045
1.743342
1.693055
1.634658
1.565878
1.489312
1.42183
1.378032
1.36473
1.385494
1.448109
1.518511
1.608703
1.742693
1.88447
2.001266
2.088862
2.129741
2.090809
1.995426
1.860462
1.665479
1.443243
1.230091
1.056845
0.946538
0.919935
0.994229
1.135682
1.31931
1.51916
1.702139
1.832237
1.889986
1.849107
1.70733
1.520782
1.313795
1.088315
0.889762
0.713596
0.560464
0.460215
0.416741
0.424852
0.488765
0.647736
0.872568
1.139575
1.358242
1.505534
1.580153
1.587615
1.514618
1.397174
1.28492
1.16488
1.036081
0.926099
0.865754
0.906308
0.992607
1.115567
1.29076
1.46206
1.599295
1.748533
1.907829
2.030789
2.102813
2.090809
1.986666
1.849756
1.723552
1.617463
1.518187
1.440647
1.400418
1.365055
1.298222
1.163583
1.041596
0.961462
0.963408
1.069498
1.213221
1.371543
1.562309
1.725174
1.760213
1.69046
1.577558
1.465953
1.394903
1.351429
1.333909
1.377383
1.466602
1.561985
1.652826
1.741396
1.812446
1.852676
1.882848
1.857867
1.766701
1.644715
1.523378
1.425399
1.373814
1.387441
1.434808
1.515916
1.608379
1.632387
1.597024
1.492232
1.339425
1.176884
1.017913
0.891709
0.802815
0.775563
0.767127
0.822605
0.958218
1.154174
1.367001
1.571393
1.773839
1.966227
2.125199
2.228693
2.242968
2.139149
1.889012
1.573016
1.211599
0.806384
0.482601
0.315519
0.258743
0.323629
0.558193
0.857968
1.119136
1.345589
1.516564
1.655421
1.768648
1.855271
1.903936
1.917238
1.895501
1.793954
1.640173
1.484121
1.367001
1.282325
1.243393
1.268699
1.331963
1.441621
1.628493
1.844241
2.042793
2.209875
2.320182
2.342568
2.293903
2.189436
2.010674
1.807904
1.621031
1.467251
1.340722
1.23366
1.169423
1.177209
1.254748
1.37057
1.523378
1.697597
1.855271
1.963956
2.01035
2.001915
1.921455
1.758915
1.560038
1.381925
1.238526
1.121407
1.059116
1.043867
1.049707
1.09967
1.160663
1.199919
1.206408
1.141197
0.941996
0.69413
0.470597
0.248686
0.104962
0.045267
0.02645
0.142597
0.39468
0.713596
0.984496
1.282649
1.57918
1.817637
2.010674
2.178406
2.292606
2.263407
2.127145
1.931188
1.677158
1.400093
1.155796
0.974115
0.899495
0.93129
1.004936
1.085719
1.20803
1.330016
1.487366
1.727445
1.987964
2.149207
2.189436
2.175486
2.10995
1.989262
1.850729
1.698571
1.55063
1.434159
1.373814
1.346238
1.331638
1.326772
1.320608
1.338776
1.389387
1.489961
1.627845
1.771892
1.920158
2.007754
1.963956
1.837428
1.69922
1.582424
1.505858
1.497747
1.531164
1.603188
1.718037
1.851054
1.962334
2.034033
2.066152
2.037602
1.963956
1.860138
1.707979
1.51332
1.30244
1.099345
0.926423
0.819685
0.804761
0.883274
1.041596
1.238202
1.435781
1.589562
1.705059
1.727445
1.576584
1.315417
0.990661
0.611076
0.269774
0.107558
0.044943
0.020286
0.040401
0.356072
0.646439
0.913122
1.160014
1.342669
1.479579
1.630764
1.767999
1.900692
2.00159
1.992506
1.901665
1.803038
1.718361
1.659314
1.656719
1.741071
1.866626
1.996724
2.127145
2.23583
2.319858
2.377282
2.371767
2.272166
2.150829
2.032411
1.881226
1.723228
1.582424
1.480228
1.407231
1.375761
1.401716
1.459464
1.556145
1.687216
1.824775
1.935406
2.014243
2.054148
2.031438
1.966876
1.860138
1.709277
1.548359
1.403013
1.287191
1.214843
1.219385
1.272267
1.353375
1.478606
1.616165
1.743018
1.836454
1.881875
1.874088
1.808878
1.692731
1.49645
1.232362
0.942969
0.685371
0.472219
0.279182
0.122806
0.050458
0.021584
0.010877
0.006335
0.054676
0.447238
0.87419
1.184995
1.31347
1.291084
1.227496
1.234309
1.304062
1.411449
1.556794
1.723552
1.884795
2.054148
2.251078
2.42465
2.554098
2.634233
2.659214
2.608278
2.456768
2.2527
2.002563
1.688838
1.318986
0.985794
0.764856
0.621133
0.625351
0.784647
1.038677
1.388414
1.742693
2.035007
2.228044
2.320831
2.324724
2.265353
2.165104
2.006457
1.81342
1.621356
1.448109
1.314768
1.23366
1.225874
1.263508
1.350455
1.486068
1.626222
1.751453
1.826397
1.838076
1.780003
1.688189
1.571718
1.423453
1.27908
1.156445
1.063658
1.006882
1.000718
1.049383
1.120109
1.209976
1.308604
1.367975
1.295951
1.117838
0.918637
0.742146
0.637679
0.674989
0.76291
0.840449
1.022779
1.245664
1.383223
1.480553
1.591508
1.724201
1.89323
2.065828
2.205982
2.277033
2.249132
2.105084
1.815042
1.326447
0.767127
0.351855
0.152005
0.142597
0.361912
0.63703
0.915393
1.18532
1.427995
1.682349
1.905558
2.085942
2.233883
2.344515
2.366576
2.282224
2.065503
1.717388
1.321581
0.955298
0.683424
0.592583
0.680504
0.876136
1.11362
1.371868
1.652826
1.956818
2.232586
2.443142
2.565778
2.582324
2.525548
2.402913
2.226421
2.036629
1.866626
1.733934
1.640497
1.607081
1.619734
1.668074
1.766701
1.888039
2.01035
2.111897
2.181325
2.180677
2.103786
1.968174
1.772217
1.581775
1.419884
1.294329
1.215167
1.181102
1.207381
1.281027
1.400742
1.521431
1.555821
1.469197
1.277458
1.044192
0.787242
0.572144
0.428745
0.354126
0.342771
0.357695
0.417714
0.53743
0.738902
1.026348
1.303737
1.518835
1.699868
1.851054
1.952601
2.000617
1.954547
1.780328
1.556794
1.27908
1.020833
0.876136
0.87127
0.95108
1.148659
1.348833
1.503263
1.654124
1.820233
1.961685
2.008728
1.930539
1.773839
1.550305
1.326447
1.235282
1.279405
1.338451
1.37641
1.423453
1.489312
1.558092
1.649257
1.791358
1.975636
2.17581
2.359114
2.512246
2.629042
2.693928
2.679978
2.604061
2.479154
2.302987
2.111573
1.933135
1.781625
1.663532
1.591508
1.57626
1.605134
1.684296
1.784545
1.898745
1.993479
2.052201
2.059663
1.999968
1.895501
1.74464
1.546088
1.331314
1.127571
0.949458
0.833311
0.83396
0.907931
1.014344
1.165529
1.355322
1.551279
1.742369
1.907505
2.022029
2.068748
2.047659
1.929566
1.746262
1.545114
1.357917
1.202515
1.118162
1.129842
1.202515
1.342993
1.548034
1.762159
1.945139
2.074263
2.14434
2.141745
2.077507
1.953899
1.747884
1.507805
1.252153
1.011749
0.822281
0.679855
0.63411
0.671744
0.784971
0.96276
1.179804
1.384521
1.509103
1.546088
1.511698
1.41372
1.281351
1.15969
1.067227
1.038352
1.081502
1.132762
1.240149
1.445189
1.651528
1.833859
1.992506
2.166077
2.314667
2.402913
2.428867
2.388638
2.265678
2.07037
1.916589
1.805309
1.718037
1.65023
1.606108
1.61065
1.643742
1.711872
1.821206
1.94449
2.04474
2.124874
2.193005
2.213444
2.168997
2.037926
1.807904
1.540248
1.260912
1.011424
0.864457
0.854399
0.934534
1.052303
1.212572
1.393929
1.572691
1.718685
1.81342
1.862733
1.863058
1.767999
1.617138
1.422804
1.23366
1.118487
1.09967
1.178831
1.342669
1.539599
1.649906
1.728418
1.837103
1.95033
2.034358
2.068423
1.982124
1.762159
1.491259
1.177209
0.883274
0.715543
0.707756
0.79438
0.977683
1.178182
1.365379
1.55647
1.748858
1.929566
2.097298
2.23583
2.32732
2.354248
2.32732
2.257243
2.127794
1.985693
