0.325251
0.514071
0.714569
0.85959
0.978981
1.096425
1.195377
1.22198
1.192782
1.149632
1.072742
0.982874
0.914744
0.889114
0.929343
1.029268
1.144117
1.228469
1.290436
1.33618
1.376086
1.445838
1.529217
1.619085
1.692731
1.732312
1.72193
1.671967
1.597997
1.473415
1.294004
1.04549
0.727871
0.348611
0.135783
0.055324
0.023855
0.011851
0.006984
0.159791
0.677584
1.181426
1.617787
1.888039
1.977907
1.959738
1.861111
1.717063
1.525324
1.285245
1.024402
0.783673
0.552678
0.260041
0.102367
0.041698
0.018988
0.00958
0.005686
0.004389
0.070573
0.542945
1.047436
1.403338
1.640497
1.783572
1.850405
1.863382
1.849756
1.820882
1.789087
1.78195
1.755671
1.664181
1.531813
1.421182
1.322554
1.213545
1.13114
1.071444
1.055547
1.092857
1.145415
1.196999
1.241122
1.306008
1.379005
1.451354
1.519809
1.51916
1.368299
1.105509
0.775887
0.420959
0.170498
0.068951
0.030019
0.015744
0.197101
0.476112
0.725924
0.867052
0.866403
0.78854
0.695103
0.596801
0.488441
0.398573
0.331416
0.263285
0.147787
0.092634
0.184124
0.349908
0.50596
0.704188
0.958542
1.183373
1.364406
1.523702
1.625249
1.689162
1.717388
1.713495
1.668723
1.549008
1.353051
1.112323
0.81709
0.409279
0.159143
0.064408
0.027748
0.013473
0.007633
0.004713
0.003091
0.223704
0.827472
1.409502
1.852351
2.137852
2.286117
2.306556
2.211173
2.039549
1.821855
1.577558
1.287516
1.017264
0.789513
0.607183
0.484872
0.389164
0.335309
0.308381
0.308057
0.302866
0.275289
0.263285
0.286969
0.384622
0.470272
0.42031
0.260041
0.115993
0.048187
0.021259
0.00958
0.004713
0.003091
0.007633
0.216567
0.502716
0.815143
1.129842
1.374463
1.494179
1.467575
1.294004
1.030566
0.683748
0.346988
0.140001
0.056298
0.024828
0.155574
0.474166
0.822605
1.128544
1.308604
1.364406
1.358566
1.27097
1.100319
0.914095
0.712947
0.533212
0.408955
0.369374
0.418363
0.556896
0.778158
1.03673
1.301791
1.517538
1.610325
1.563931
1.336829
0.987741
0.582201
0.234086
0.092958
0.039103
0.018015
0.009255
0.005686
0.004064
0.002766
0.157196
0.560789
0.961462
1.303413
1.579829
1.752426
1.808553
1.772866
1.614218
1.353051
0.966653
0.454051
0.175689
0.070573
0.030668
0.014446
0.007633
0.004713
0.003415
0.019313
0.463135
0.998447
1.440647
1.761186
1.938001
1.96428
1.816339
1.465629
1.010127
0.57701
0.24609
0.097825
0.040401
0.018015
0.008931
0.005686
0.181204
0.542296
0.867052
1.107456
1.225874
1.238851
1.185969
1.044516
0.856995
0.717489
0.631515
0.541972
0.478383
0.48617
0.520235
0.512773
0.525426
0.581877
0.686019
0.818063
0.941671
1.043543
1.106483
1.140548
1.115891
1.004611
0.80833
0.624053
0.55138
0.57409
0.660714
0.773291
0.917339
1.119784
1.322879
1.491259
1.603512
1.646013
1.630116
1.580478
1.490285
1.339749
1.173965
1.012722
0.86835
0.755448
0.661038
0.528995
0.396951
0.348935
0.390138
0.484872
0.624377
0.839476
1.069173
1.235931
1.352078
1.423777
1.429617
1.380628
1.289787
1.187266
1.098372
1.045165
1.002665
0.984496
1.016291
1.063658
1.11362
1.141846
1.116865
1.03965
0.941996
0.851804
0.720409
0.5543
0.42031
0.331091
0.292484
0.384947
0.607831
0.828769
1.021157
1.234309
1.429941
1.561985
1.628493
1.656395
1.641146
1.575935
1.472117
1.323528
1.15677
1.012398
0.911175
0.843693
0.804761
0.820334
0.880029
0.974764
1.098696
1.243069
1.372517
1.464331
1.509103
1.483797
1.415991
1.318337
1.176236
0.991634
0.77686
0.589014
0.458268
0.41155
0.455997
0.58577
0.781402
0.973466
1.117189
1.183373
1.174938
1.128544
1.0536
0.989039
0.956271
0.919935
0.864132
0.827796
0.813521
0.791784
0.722356
0.523155
0.264583
0.105287
0.042347
0.018339
0.008931
0.014122
0.271071
0.576686
0.852453
1.022779
1.057818
1.001367
0.932263
0.861861
0.759665
0.646114
0.507906
0.396951
0.3405
0.273018
0.241873
0.293782
0.398897
0.485845
0.572468
0.681802
0.780105
0.879381
0.995527
1.118487
1.200244
1.222954
1.193106
1.130815
1.020833
0.878407
0.764207
0.732413
0.747337
0.798922
0.862835
0.941023
1.033161
1.095128
1.100643
1.029268
0.893656
0.750257
0.665905
0.62308
0.631839
0.723329
0.86835
1.021157
1.088639
1.0682
0.994554
0.892682
0.7827
0.649359
0.482601
0.319736
0.199048
0.138054
0.19483
0.35737
0.558518
0.809952
1.118487
1.411124
1.59021
1.64212
1.589562
1.463033
1.333909
1.200892
1.00234
0.779131
0.593881
0.491036
0.465081
0.498822
0.593556
0.700619
0.831365
0.969573
1.08799
1.151903
1.203812
1.321257
1.446163
1.544141
1.600268
1.575611
1.473415
1.318012
1.110376
0.903389
0.814494
0.863159
0.984172
1.201866
1.458167
1.709601
1.883172
1.860138
1.633684
1.339425
1.032512
0.653576
0.297026
0.118589
0.04916
0.022557
0.058244
0.385271
0.742146
1.101616
1.451354
1.734258
1.897772
1.896799
1.703762
1.339425
0.944916
0.560789
0.233437
0.092958
0.039103
0.018015
0.009255
0.006011
0.004713
0.267827
0.640923
0.94232
1.161961
1.303413
1.367975
1.350131
1.271943
1.183373
1.088639
1.049058
1.077608
1.08799
1.066253
1.01986
0.976386
0.94816
0.921232
0.845315
0.663958
0.416741
0.209754
0.089065
0.037156
0.017366
0.127673
0.336282
0.535808
0.734035
0.893331
1.03089
1.195701
1.369272
1.505534
1.617787
1.746911
1.874413
1.960063
2.016838
2.014243
1.882848
1.708628
1.538626
1.361811
1.214194
1.083124
0.969573
0.862835
0.80833
0.860564
0.923828
0.91377
0.837529
0.780105
0.758043
0.756745
0.793731
0.905984
1.063009
1.196026
1.282974
1.33618
1.335532
1.297573
1.256695
1.253775
1.269672
1.239824
1.145739
0.990012
0.782051
0.528021
0.307408
0.176986
0.16336
0.296701
0.482925
0.64579
0.777509
0.878083
0.91669
0.89398
0.86251
0.875163
0.96795
1.141521
1.368299
1.5821
1.733285
1.793305
1.744316
1.608703
1.415017
1.201541
0.993581
0.828445
0.703863
0.566304
0.481303
0.482925
0.56014
0.703863
0.846289
0.980603
1.118811
1.255397
1.375112
1.471468
1.53895
1.558092
1.509751
1.378681
1.141521
0.709054
0.282427
0.110802
0.045267
0.019961
0.009904
0.00666
0.336282
0.853751
1.347211
1.731663
1.967525
2.060961
2.034682
1.930539
1.752751
1.542843
1.301791
1.039325
0.838827
0.73144
0.739551
0.88814
1.11946
1.361162
1.553874
1.704086
1.791034
1.747884
1.578206
1.315092
1.013371
0.697374
0.404088
0.206185
0.133188
0.176013
0.292159
0.513746
0.818063
1.121731
1.339425
1.447136
1.443243
1.330989
1.174938
1.041921
0.955946
0.946862
0.994554
1.077284
1.120109
1.037379
0.830067
0.593232
0.412524
0.313896
0.315519
0.451131
0.734035
1.111349
1.474713
1.745289
1.83613
1.743991
1.488339
1.1678
0.893656
0.713921
0.643519
0.632164
0.676935
0.7827
0.933561
1.107132
1.287191
1.435781
1.509427
1.500018
1.379005
1.198946
1.038028
0.913446
0.819036
0.75707
0.754474
0.812872
0.918961
1.082475
1.284596
1.507156
1.706357
1.848783
1.923402
1.917562
1.857542
1.746587
1.576909
1.377383
1.148659
0.880029
0.613022
0.346664
0.146165
0.060191
0.072195
0.31487
0.61724
0.927397
1.221007
1.482175
1.660612
1.752426
1.751129
1.683971
1.573016
1.414693
1.206732
0.919935
0.572468
0.268152
0.107882
0.044294
0.019961
0.010553
0.139352
0.404088
0.68829
1.010127
1.283947
1.422804
1.482175
1.512022
1.504236
1.422155
1.238851
0.984496
0.686668
0.398573
0.176337
0.070248
0.029694
0.013797
0.007957
0.005362
0.227922
0.588041
0.901442
1.136979
1.274538
1.319634
1.315092
1.282974
1.233336
1.209976
1.252477
1.294653
1.298546
1.269347
1.230416
1.17948
1.115891
1.08215
1.070471
1.097723
1.145739
1.226198
1.324825
1.40496
1.457842
1.5104
1.583073
1.656395
1.689487
1.680403
1.622978
1.534733
1.440323
1.355971
1.253775
1.128869
1.018886
0.943294
0.903713
0.90274
0.934534
0.943618
0.902415
0.860564
0.830391
0.829743
0.869972
0.902091
0.895602
0.794055
0.530617
0.231166
0.090687
0.037481
0.017041
0.008606
0.005362
0.003091
0.002766
0.02645
0.326225
0.588041
0.774589
0.914744
1.025699
1.115242
1.199919
1.29952
1.388089
1.463358
1.532786
1.572367
1.548359
1.438052
1.264805
1.083124
0.903713
0.778807
0.744093
0.763559
0.821956
0.92253
1.027646
1.135033
1.240797
1.303737
1.341047
1.361486
1.351429
1.326772
1.321581
1.335532
1.355971
1.389712
1.45038
1.515916
1.562634
1.571718
1.531813
1.430266
1.240797
1.007207
0.688939
0.310003
0.121508
0.049809
0.021908
0.010553
0.00666
0.017366
0.472543
1.055871
1.534084
1.860138
2.046362
2.136554
2.095027
1.886092
1.503587
1.012073
0.499147
0.194506
0.07771
0.032939
0.015744
0.008282
0.005038
0.038778
0.481627
0.976061
1.378032
1.666776
1.837103
1.890959
1.822179
1.666128
1.487041
1.303088
1.100319
0.878732
0.685371
0.508555
0.345042
0.245441
0.177311
0.114695
0.080955
0.083874
0.120211
0.207483
0.381054
0.581552
0.792433
1.009153
1.195053
1.305035
1.35662
1.403662
1.447136
1.444541
1.438701
1.444541
1.450705
1.44746
1.445838
1.434483
1.399445
1.347211
1.262534
1.166827
1.068524
0.96795
0.891385
0.84272
0.834285
0.83104
0.840124
0.879056
0.909228
0.917988
0.899495
0.833311
0.655847
0.416741
0.213647
0.087443
0.036183
0.016068
0.007957
0.005038
0.003415
0.147463
0.496551
0.821632
1.119784
1.324501
1.43643
1.515916
1.569771
1.582749
1.577882
1.557443
1.466278
1.32223
1.123029
0.862186
0.635732
0.497525
0.430692
0.477734
0.689913
0.980928
1.269996
1.485095
1.610325
1.63336
1.555821
1.430914
1.309901
1.180778
1.063333
0.990012
0.963408
0.981252
1.045814
1.086692
1.051005
0.964706
0.845315
0.710676
0.615942
0.618862
0.68018
0.745715
0.833311
0.941671
1.063333
1.157743
1.167476
1.071769
0.935183
0.83396
0.777509
0.784322
0.858941
0.990012
1.146712
1.308604
1.429941
1.444216
1.389063
1.288489
1.159365
1.040299
0.92837
0.773291
0.566304
0.377809
0.236357
0.127024
0.059866
0.026126
0.012175
0.051107
0.270098
0.562411
0.864781
1.154499
1.371219
1.508454
1.559714
1.507156
1.384845
1.240797
1.133735
1.063658
1.033161
1.058791
1.134059
1.232362
1.316066
1.385494
1.422155
1.421182
1.313795
1.124975
0.897549
0.667851
0.501093
0.491685
0.613347
0.782051
0.971519
1.155472
1.316066
1.447136
1.527595
1.543817
1.49937
1.352402
1.13633
0.890411
0.646439
0.475788
0.390138
0.353801
0.376512
0.498822
0.680828
0.828445
0.910202
0.962435
1.012398
1.053925
1.060738
1.020184
0.944267
0.82812
0.631515
0.356721
0.145192
0.058244
0.024828
0.012499
0.256472
0.641248
1.013695
1.381276
1.66191
1.842294
1.943517
1.972716
1.92178
1.800118
1.631738
1.420208
1.203812
0.964706
0.729818
0.539376
0.432314
0.421608
0.480654
0.60848
0.810601
1.083124
1.37641
1.616814
1.777083
1.830614
1.769946
1.592806
1.316714
1.005585
0.703214
0.44886
0.275289
0.230193
0.30027
0.404413
0.541323
0.753826
0.97087
1.137628
1.238202
1.260912
1.135357
0.876461
0.561113
0.261014
0.103016
0.042347
0.018988
0.009255
0.06376
0.435234
0.835258
1.211274
1.533435
1.777083
1.951952
2.067125
2.092755
2.000292
1.794278
1.52208
1.200568
0.844018
0.527697
0.267178
0.107558
0.044294
0.019637
0.009904
0.005686
0.124753
0.540674
0.968599
1.371543
1.634982
1.714792
1.666776
1.524675
1.346562
1.187591
1.069822
0.997474
1.00818
1.077608
1.192133
1.369597
1.555496
1.722254
1.851378
1.912696
1.883821
1.774163
1.636604
1.476335
1.318661
1.199919
1.125624
1.073715
1.024726
1.024077
1.069498
1.15677
1.25929
1.338451
1.382574
1.308279
1.129842
0.894304
0.655847
0.430692
0.2117
0.08939
0.039103
0.084523
0.302217
0.547812
0.759665
0.925774
1.078906
1.17364
1.173965
1.094154
0.996825
0.917015
0.840449
0.793406
0.752852
0.692184
0.652927
0.624377
0.545541
0.427447
0.363534
0.382351
0.478708
0.675638
0.927072
1.181102
1.441296
1.665479
1.805633
1.878955
1.923402
1.885119
1.752426
1.516564
1.235282
0.960813
0.710676
0.535159
0.422257
0.38008
0.418363
0.537105
0.7256
0.953675
1.19635
1.386143
1.50456
1.551928
1.506183
1.384845
1.217763
1.055547
0.916366
0.792109
0.676935
0.555922
0.46865
0.431016
0.433612
0.507258
0.667527
0.883598
1.161636
1.475037
1.723876
1.841321
1.868249
1.835481
1.74756
1.61357
1.498721
1.446487
1.428643
1.403013
1.31931
1.174289
0.940698
0.638004
0.343744
0.14357
0.059218
0.026126
0.031316
0.292159
0.622755
0.938103
1.186942
1.380952
1.538301
1.677158
1.790709
1.820882
1.785194
1.718361
1.634009
1.513645
1.367326
1.20511
1.037379
0.90274
0.786593
0.684073
0.608805
0.569873
0.547487
0.56014
0.635732
0.790486
1.001691
1.263832
1.541546
1.780976
1.923078
1.96428
1.906856
1.762159
1.555821
1.274863
0.919286
0.500769
0.196777
0.078683
0.033263
0.015744
0.008282
0.005362
0.005362
0.268476
0.638652
0.975088
1.255072
1.463358
1.581451
1.652177
1.698246
1.718037
1.719983
1.722254
1.711224
1.696949
1.684296
1.587939
1.332936
1.013371
0.694779
0.365157
0.147787
0.060515
0.026774
0.014446
0.226624
0.556571
0.848235
1.083773
1.295302
1.498396
1.697597
1.870844
2.015541
2.095675
2.092755
1.945463
1.646986
1.268374
0.846937
0.434585
0.17504
0.071222
0.030992
0.015419
0.258743
0.681477
1.073715
1.386143
1.599295
1.724201
1.767675
1.752102
1.689811
1.614218
1.551928
1.473739
1.373814
1.282649
1.221332
1.180453
1.143792
1.112647
1.046463
0.965355
0.883598
0.792757
0.723653
0.682775
0.688615
0.734684
0.837205
0.98255
1.100319
1.142819
1.106483
1.034135
0.964706
0.931614
0.955946
0.996825
1.01986
0.966004
0.827147
0.652279
0.475788
0.367103
0.332389
0.355748
0.379107
0.413172
0.567602
0.748959
0.891385
1.043219
1.242744
1.452003
1.621031
1.78487
1.933784
2.050579
2.088862
2.008403
1.82445
1.57334
1.280703
0.982874
0.722031
0.545865
0.489089
0.512773
0.605236
0.776536
0.966977
1.134384
1.264805
1.341371
1.374139
1.370246
1.311848
1.183049
1.035432
0.901118
0.776211
0.710027
0.716516
0.804437
0.929668
1.064307
1.209003
1.344291
1.470495
1.592157
1.697273
1.757942
1.789412
1.803687
1.766701
1.677807
1.50748
1.250206
0.880678
0.478708
0.198399
0.079657
0.033912
0.016068
0.249334
0.647088
0.999096
1.295951
1.445189
1.452651
1.384521
1.258641
1.124327
0.988714
0.80249
0.55138
0.308705
0.147463
0.068626
0.109504
0.299621
0.579606
0.857319
1.033161
1.140548
1.230416
1.311524
1.35662
1.37933
1.379654
1.334883
1.270321
1.205434
1.191484
1.222629
1.254748
1.26513
1.24242
1.185644
1.059116
0.907931
0.770696
0.650332
0.558518
0.517639
0.564682
0.687966
0.843044
1.008829
1.160014
1.292382
1.418262
1.545439
1.650879
1.728094
1.808229
1.868573
1.901341
1.901016
1.838401
1.66191
1.282325
0.705485
0.27464
0.109504
0.045916
0.020935
0.011202
0.006984
0.004389
0.003415
0.112749
0.628271
1.162285
1.617138
1.983422
2.234532
2.333809
2.29293
2.102164
1.760213
1.354673
0.993905
0.706783
0.520884
0.454375
0.509853
0.684722
1.000069
1.372192
1.707655
1.979853
2.157642
2.226421
2.179054
2.005808
1.737178
1.372517
0.903064
0.387542
0.151681
0.062137
0.027423
0.013473
0.007633
0.012499
0.456646
1.056196
1.574313
1.932162
2.133634
2.199818
2.162833
2.042469
1.870844
1.692731
1.516889
1.342345
1.186942
1.055547
0.917988
0.807032
0.769398
0.77394
0.788215
0.812223
0.874514
0.980279
1.106158
1.227496
1.28784
1.323528
1.349807
1.339425
1.278432
1.165529
1.018562
0.821632
0.613671
0.421932
0.265556
0.149085
0.072519
0.043969
0.092958
0.196777
0.271071
0.304163
0.321358
0.320385
0.292484
0.26069
0.290862
0.409279
0.559816
0.697699
0.793082
0.873541
0.952378
1.04841
1.155472
1.218412
1.23366
1.187266
1.075013
0.937778
0.792757
0.701592
0.695103
0.793731
0.935832
1.080528
1.229442
1.365379
1.490285
1.601566
1.694029
1.731663
1.700517
1.614218
1.464331
1.273565
1.06236
0.854724
0.684073
0.58577
0.572144
0.601343
0.662336
0.746688
0.86835
0.974764
0.975412
0.865106
0.677909
0.455997
0.232464
0.092958
0.038454
0.017366
0.009255
0.115669
0.274965
0.348286
0.357695
0.356397
0.332713
0.287617
0.271396
0.305786
0.338553
0.331091
0.362886
0.419661
0.45762
0.455024
0.422581
0.372618
0.30903
0.275289
0.275289
0.27172
0.266529
0.270423
0.298973
0.351206
0.426799
0.504013
0.607831
0.720409
0.804437
0.874514
0.879056
0.796002
0.621782
0.42615
0.297675
0.234411
0.235708
0.297026
0.397924
0.512773
0.611725
0.70581
0.786593
0.850506
0.875812
0.824876
0.706459
0.540674
0.360939
0.224353
0.14941
0.181528
0.338229
0.604911
0.928045
1.247935
1.498072
1.646986
1.648933
1.419235
1.068849
0.666229
0.278533
0.109504
0.045267
0.020286
0.010228
0.02645
0.365157
0.672069
0.870621
0.957244
0.97087
0.953675
0.929343
0.883598
0.830067
0.779456
0.649034
0.43426
0.202292
0.079332
0.032939
0.014446
0.007309
0.004064
0.002442
0.001793
0.151356
0.529643
0.867377
1.072417
1.111674
1.043219
0.924801
0.761936
0.963084
1.652501
2.22999
2.610549
2.132985
1.606108
0.623404
0.439451
0.326874
0.157196
0.062137
0.020286
0.011526
0.005362
0.005362
1.998995
5.483734
8.61002
10.631631
10.631631
10.631631
10.631631
10.631631
8.689184
6.378853
4.09483
2.628069
1.826397
1.892257
3.49917
5.433446
7.722676
10.57615
10.631631
10.631631
10.631631
10.631631
10.631631
10.631631
10.631631
10.631631
10.508017
9.430535
8.945168
8.885471
10.551168
10.631631
10.631631
10.631631
10.631631
10.631631
10.631631
10.631631
10.631631
10.631631
10.631631
10.631631
10.631631
10.631631
10.631631
10.631631
10.631631
10.631631
10.631631
10.631631
10.631631
10.631631
10.631631
10.631631
10.631631
10.631631
10.631631
10.631631
10.631631
10.631631
10.631631
10.631631
10.631631
10.631631
10.631631
10.631631
10.631631
10.631631
10.631631
10.631631
10.631631
10.631631
10.631631
10.631631
10.631631
10.631631
10.631631
10.631631
10.631631
10.631631
10.631631
10.631631
10.631631
10.631631
10.631631
10.631631
10.631631
10.631631
10.631631
10.631631
10.631631
10.631631
10.631631
10.631631
10.631631
10.631631
10.631631
10.631631
10.631631
10.631631
10.631631
10.631631
10.631631
10.631631
10.631631
10.631631
10.631631
10.631631
10.631631
10.631631
10.631631
10.631631
10.631631
10.631631
10.631631
10.631631
10.631631
10.631631
10.631631
10.631631
10.631631
10.631631
10.631631
10.631631
10.631631
10.631631
10.631631
10.631631
10.631631
10.068068
9.090519
8.244051
7.438142
6.969329
7.143228
8.247619
8.94452
9.319251
9.24398
7.996827
6.945645
7.99196
9.098305
10.210175
10.631631
10.631631
10.631631
10.631631
10.631631
10.631631
10.631631
10.631631
10.631631
10.342873
9.711503
9.158652
8.440986
7.918962
7.408294
7.185405
6.775964
6.775964
6.799324
6.853505
7.691205
8.343329
9.019141
9.842903
10.183246
9.609303
8.424115
6.518685
3.497873
0.774589
0.566629
0.576686
0.732413
1.032512
1.414368
1.820557
2.220906
2.539823
2.731562
3.824901
5.209262
6.271464
6.212417
5.495089
4.151606
1.847809
1.523702
1.230416
1.064631
1.030241
1.111674
1.278432
1.463682
1.637253
1.837103
2.040846
2.202414
2.299419
2.339648
2.346137
2.322778
2.249132
2.173215
2.124225
2.12455
2.205658
2.314991
2.433085
2.546636
2.641046
2.64429
2.532361
2.375985
2.170944
1.982449
1.844241
1.769297
1.768324
1.845863
1.996399
2.180677
2.405832
2.677058
2.950554
3.140996
3.217238
3.247086
3.211723
2.978131
2.671867
2.297472
1.83321
1.371868
1.038677
0.845315
0.827147
1.001691
1.340722
1.807904
2.326347
2.790609
3.080976
3.19323
3.238326
3.254548
3.171169
2.801315
2.295526
1.733609
1.223927
0.829743
0.593556
0.570197
0.757394
1.059116
1.430914
1.803038
2.099244
2.29293
2.40129
2.394802
2.252376
2.04474
1.804984
1.554199
1.330016
1.1824
1.119136
1.125624
1.234309
1.422155
1.660937
1.913993
2.108004
2.116439
1.946112
1.698895
1.388089
1.08507
0.865106
0.749284
0.764856
0.907606
1.135357
1.38517
1.614543
1.823153
1.989262
2.115141
2.215391
2.290335
2.338675
2.358141
2.324724
2.200467
2.021056
1.785194
1.496125
1.196999
0.846613
0.395653
0.1546
0.063111
0.027748
0.013148
0.007957
0.31779
0.901766
1.46206
1.913993
2.178081
2.276708
2.276384
2.20144
2.063232
1.862084
1.600592
1.255072
0.860564
0.473841
0.196128
0.078683
0.033587
0.065706
0.385271
0.748635
1.105185
1.436754
1.712846
1.892257
1.89907
1.751453
1.497747
1.187266
0.891385
0.646763
0.471895
0.336931
0.248686
0.205536
0.219162
0.347962
0.561438
0.807357
1.100967
1.475362
1.827046
2.069721
2.228693
2.305583
2.308503
2.268922
2.23875
2.216689
2.168997
2.100542
2.009052
1.914642
1.805958
1.700842
1.622329
1.592157
1.573989
1.513645
1.438376
1.317039
1.138926
0.929019
0.681477
0.435558
0.208781
0.083874
0.03521
0.016068
0.068302
0.429394
0.823903
1.169098
1.441945
1.602863
1.581775
1.444216
1.252801
1.034783
0.785944
0.53159
0.32882
0.205536
0.19483
0.2834
0.466379
0.735333
1.063982
1.391334
1.620707
1.752751
1.803038
1.758591
1.670994
1.583073
1.490934
1.415666
1.392632
1.42183
1.494828
1.615516
1.750804
1.873439
1.955196
1.992506
1.977582
1.912696
1.811473
1.669047
1.510725
1.349158
1.201866
1.095452
1.028944
1.018886
1.036406
1.043219
1.04549
1.034783
0.977035
0.81417
0.541647
0.24317
0.095878
0.040076
0.018664
0.00958
0.006011
0.036507
0.413172
0.826174
1.181102
1.459789
1.683647
1.826721
1.872791
1.825748
1.64731
1.343967
0.960164
0.535159
0.21462
0.085821
0.036507
0.017366
0.005686
0.136108
0.598423
1.058467
1.469197
1.791683
1.992506
2.090809
2.117412
2.094053
2.014243
1.877333
1.72193
1.530839
1.329043
1.137953
0.977035
0.845964
0.724302
0.650981
0.604587
0.590961
0.649683
0.783349
0.983848
1.217438
1.450056
1.624276
1.698895
1.654124
1.472442
1.21679
0.950107
0.714894
0.570522
0.556571
0.640275
0.782376
0.974764
1.173965
1.339425
1.435781
1.46498
1.433834
1.340398
1.211923
1.100967
1.017264
0.999745
1.056196
1.156445
1.261886
1.373814
1.483148
1.577558
1.643742
1.640497
1.458167
1.105834
0.657145
0.265232
0.104314
0.043969
0.020286
0.010553
0.00666
0.004713
0.004389
0.082577
0.339202
0.613996
0.911175
1.243069
1.555496
1.831912
2.039224
2.12455
2.046037
1.832885
1.529542
1.115242
0.64871
0.265232
0.104962
0.043645
0.019961
0.010553
0.076412
0.550083
1.102265
1.617463
2.039224
2.332186
2.487589
2.502838
2.391557
2.120008
1.707006
1.239824
0.767127
0.364183
0.144543
0.059866
0.026126
0.012824
0.048511
0.407333
0.820983
1.242744
1.635631
1.936055
2.099893
2.142718
2.075885
1.926971
1.719659
1.506831
1.32223
1.155796
1.046787
0.966004
0.907282
0.90566
0.943294
1.00526
1.079231
1.172667
1.244691
1.265779
1.217114
1.102265
0.985794
0.890087
0.813197
0.729818
0.646439
0.571171
0.472868
0.299621
0.124428
0.049485
0.021259
0.010553
0.006335
0.004389
0.150058
0.521208
0.846613
1.065604
1.132113
1.114269
1.050681
0.991634
0.950107
0.940049
0.96276
0.975737
1.009153
1.06236
1.076635
1.037703
0.948809
0.828445
0.702565
0.633461
0.67142
0.787891
0.915717
1.052627
1.206408
1.350455
1.510076
1.706357
1.89031
2.042144
2.146287
2.177757
2.115466
1.985368
1.779354
1.523053
1.208679
0.85667
0.513746
0.234735
0.094581
0.039752
0.018988
0.00958
0.006335
0.200345
0.532888
0.881652
1.197972
1.411124
1.532137
1.570745
1.775461
2.765628
2.921031
2.671543
1.940597
0.6831
0.647088
0.651954
0.725924
0.848235
0.976386
1.07112
1.195377
1.354024
1.473415
1.520458
2.309801
3.646463
4.429646
4.744022
4.843624
4.227848
3.540373
2.740971
1.47082
1.337154
1.396849
1.393605
1.342993
1.240797
1.100967
0.94816
0.804437
0.704188
2.243292
3.307106
4.012099
4.290788
3.313595
2.034033
0.431016
0.361588
0.379432
0.469948
0.610751
0.77686
0.946862
1.083124
1.722903
4.184698
6.033004
7.403427
8.206091
8.339436
7.353464
5.449344
3.715892
2.126496
0.889762
0.83104
1.043219
1.21095
1.405609
2.926871
4.288841
5.605073
7.213631
8.289797
8.849134
9.018492
8.923431
8.044195
7.122464
6.060256
4.718392
3.737629
2.930115
2.785743
3.073839
3.918338
5.388999
6.733463
8.177216
9.480175
10.533323
10.631631
10.631631
10.442154
9.153136
8.092861
7.160423
5.895767
5.194338
4.849788
4.779386
4.854654
5.667689
6.597523
7.63313
9.032443
10.147233
10.631631
10.631631
10.631631
10.631631
10.631631
10.351309
9.248847
7.888789
6.342192
4.925706
3.470296
2.006781
1.299844
1.092857
1.998021
3.994255
5.795192
7.269434
9.182985
10.631631
10.631631
10.631631
10.631631
10.342549
8.29953
5.840613
3.615642
1.653799
0.597125
1.025699
2.03014
3.922556
6.548858
9.570695
10.631631
10.631631
10.631631
10.631631
10.631631
10.631631
10.631631
10.631631
9.682303
8.671988
7.78075
7.462475
7.383961
7.725271
8.687562
9.641748
10.631631
10.631631
10.631631
10.631631
10.631631
10.631631
10.631631
10.631631
10.07845
9.012977
7.934535
7.039732
7.194813
7.370659
8.042898
9.416259
10.579395
10.631631
10.631631
10.631631
10.631631
10.631631
10.631631
9.354615
8.256379
7.265865
6.791537
6.538476
6.631914
7.541638
8.448448
9.475308
10.306536
10.631631
10.631631
9.828303
8.331001
6.289308
4.718392
3.07319
0.835258
0.008282
0.009904
0.239926
0.675313
1.848458
4.479608
6.761364
8.905911
10.512559
10.631631
10.631631
10.631631
10.631631
9.524948
7.282412
4.706063
2.342893
0.635408
0.872568
1.138602
1.83321
3.82847
5.572953
7.209738
9.017844
10.275713
10.631631
10.631631
10.124846
8.031218
4.985402
1.946761
0.076088
0.032614
0.015095
0.008282
0.065057
0.502391
1.024077
2.81559
6.298068
9.411393
10.631631
10.631631
10.631631
10.631631
10.631631
10.631631
9.963272
7.802488
6.033652
4.684326
3.703563
2.933684
2.902538
3.197123
3.829119
4.853032
5.746527
6.609203
6.897953
6.820412
6.369769
4.935439
3.185768
1.031863
0.903389
0.898198
0.960164
1.091883
1.260912
1.404311
1.48185
1.506183
2.610225
3.540373
3.703563
2.883397
1.559389
0.255174
0.045591
0.019961
0.010228
0.005362
0.003415
0.038778
0.530292
1.078582
1.567176
2.328618
5.272851
7.360602
8.278766
7.864131
6.981658
5.99472
4.322582
3.045289
1.835157
1.206732
1.371868
1.539275
1.671318
1.767999
1.836454
1.848783
1.831263
3.059239
4.360541
5.289397
5.255656
4.777763
3.932613
2.298121
0.847911
0.844666
0.986119
1.201541
1.465304
1.728418
1.905883
1.940921
1.867924
1.741071
1.999644
2.76725
3.281151
3.463807
3.565679
3.020632
2.22707
1.267076
1.235607
1.423777
1.608703
1.762484
1.871493
1.938001
1.95325
1.924051
1.86176
2.813644
3.947537
4.218439
3.878433
2.822404
0.619835
0.31195
0.127024
0.05208
0.022557
0.010877
0.006335
0.004389
0.008606
0.19483
0.422257
0.663634
0.906633
1.798496
3.697074
4.968206
5.537266
4.886125
3.990362
2.568049
1.803038
1.676509
1.433185
1.159041
0.915068
0.730467
0.632488
0.635732
0.695103
0.784647
0.879056
1.532137
2.387664
2.423027
1.848134
1.398796
1.525973
1.61357
1.619734
1.556794
1.455571
1.356944
1.260263
1.181102
1.09967
0.980928
0.836556
0.681153
0.53451
0.419985
0.386893
0.490063
0.709054
1.038677
1.424426
1.783572
2.07037
2.262433
2.328293
2.283522
2.17581
2.027869
1.851378
2.157642
1.967849
1.047761
0.615942
0.256796
0.102043
0.042672
0.019313
0.010228
0.006335
0.119886
0.542621
0.982874
1.36765
1.679429
1.894203
2.160562
3.546862
4.101967
4.135708
3.336954
2.036629
1.714792
1.752751
1.806282
1.867924
1.925673
1.954872
1.948708
1.895501
1.797847
1.689487
1.589562
1.512671
1.459789
1.409178
1.396525
1.306333
1.299195
1.295626
1.31347
1.37349
1.448434
1.499694
1.461411
1.269996
0.863808
0.365157
0.142597
0.058244
0.02645
0.013473
0.013473
0.005038
0.003415
0.055
0.436207
0.891385
1.309253
1.660612
1.928917
2.056419
2.047984
1.943192
1.788438
1.606756
1.417937
1.218412
0.975737
0.747661
0.575713
0.497525
0.521533
0.670447
0.949133
1.304062
1.694029
2.06745
2.356843
2.495051
2.489536
2.385069
2.186516
1.909776
1.562634
1.200568
0.904686
0.70289
0.606534
0.593556
0.677584
0.772643
0.859915
0.995852
1.164556
1.314443
1.396849
1.415991
1.395551
1.333261
1.263183
1.210625
1.176884
1.179155
1.230416
1.32223
1.407555
1.481526
1.526622
1.503587
1.327096
1.012073
0.678882
0.387542
0.194181
0.091661
0.042672
0.022881
0.043645
0.228246
0.475139
0.75415
0.955298
0.9965
0.922206
0.756745
0.577659
0.508555
0.602316
0.810277
1.058791
1.327096
1.551279
1.711872
1.911074
2.739024
2.935631
1.974013
1.77903
1.707006
1.599943
1.491259
1.377383
1.250206
1.109403
0.946214
0.738253
0.540025
0.387218
0.296377
0.334984
0.486494
0.721382
0.977359
1.211274
1.384196
1.484121
1.567825
1.655421
1.737503
1.794278
1.804984
1.766377
1.688189
1.603512
1.518187
1.455247
1.415017
1.387441
1.374788
1.411449
1.491259
1.58502
1.681376
1.801091
1.916913
2.022678
2.104111
2.125199
2.045064
1.88447
1.663532
1.370246
1.060413
0.795677
0.634435
0.585121
0.664931
0.850506
1.064307
1.308279
1.530839
1.65315
1.629791
1.501641
1.296275
1.001042
0.671744
0.346988
0.138054
0.055649
0.024828
0.012175
0.006984
0.004389
0.08355
0.489089
0.920259
1.287191
1.51332
1.625574
1.635955
1.557118
1.452976
1.401716
1.360513
1.292382
1.257343
1.28784
1.350455
1.390036
1.416639
1.378357
1.28492
1.177533
1.038352
0.917664
0.882949
0.971195
1.130815
1.327096
1.545114
1.729716
1.832885
1.804984
1.666452
1.473091
1.289462
1.137628
1.03089
0.986767
1.022131
1.120109
1.254748
1.413071
1.583397
1.734258
1.854622
1.925997
1.924051
1.873439
1.800442
1.727445
1.660612
1.627845
1.629142
1.650555
1.702788
1.758266
1.783896
1.729392
1.530839
1.199919
0.806059
0.412524
0.162711
0.066031
0.029045
0.01477
0.008282
0.205861
0.664282
1.088315
1.462384
1.795251
2.050579
2.217013
2.273789
2.18749
1.912047
1.474064
0.961137
0.455673
0.178284
0.072844
0.031965
0.015744
0.009255
0.004713
0.022881
0.532239
1.191159
1.785194
2.243616
2.557667
2.706257
2.683547
2.516788
2.224799
1.799145
1.279729
0.759665
0.349259
0.14065
0.057595
0.026126
0.149085
0.658118
1.230091
1.750155
2.171268
2.470394
2.636179
2.672191
2.615416
2.493105
2.325049
2.144665
1.981475
1.837752
1.711224
1.629142
1.561336
1.512996
1.512347
1.532137
1.575935
1.646662
1.742369
1.816339
1.851054
1.854298
1.796549
1.696624
1.575935
1.446163
1.335532
1.251504
1.193755
1.104536
0.996825
0.895278
0.772318
0.646439
0.531914
0.390787
0.213971
0.087119
0.036832
0.016717
0.008931
0.005686
0.016393
0.324927
0.680504
1.007531
1.294004
1.539599
1.677483
1.717063
1.705384
1.660612
1.583073
1.490934
1.42767
1.392307
1.363757
1.376086
1.419884
1.463358
1.495476
1.546412
1.569122
1.572367
1.61065
1.650555
1.677807
1.685269
1.638226
1.518511
1.368299
1.23366
1.116216
1.06236
1.092532
1.18532
1.323528
1.465629
1.576584
1.651528
1.709277
1.775785
1.821855
1.85884
1.908803
1.945139
1.929566
1.881875
1.801416
1.651853
1.456869
1.280054
1.170396
1.088639
1.027321
0.978008
0.943943
0.966653
1.00234
0.997149
0.861861
0.627297
0.349259
0.14065
0.057271
0.025152
0.012175
0.007633
0.03229
0.296701
0.555598
0.860564
1.220683
1.543492
1.797847
1.993804
2.113844
2.142394
2.091133
2.004186
1.929566
1.869871
1.755671
1.554199
1.228794
0.779131
0.334336
0.131566
0.054351
0.02353
0.011851
0.007309
0.297026
0.783349
1.245015
1.611299
1.865978
2.03598
2.140771
2.162508
2.13039
2.069396
1.962334
1.826072
1.698246
1.612921
1.561336
1.558416
1.591184
1.637578
1.685593
1.72485
1.747884
1.74464
1.7388
1.708953
1.636604
1.516889
1.358242
1.207381
1.092208
1.042245
1.047112
1.081177
1.133735
1.155148
1.176236
1.209328
1.240149
1.262859
1.278432
1.288165
1.259939
1.214843
1.163907
1.092208
0.963408
0.795353
0.64579
0.564358
0.596152
0.753826
0.999096
1.257992
1.449407
1.528568
1.476659
1.339749
1.141846
0.889762
0.654225
0.464108
0.264258
0.110153
0.046889
0.020286
0.011202
0.283724
0.689264
1.070471
1.451678
1.853
2.185867
2.37274
2.41881
2.342244
2.171917
1.932811
1.666452
1.431563
1.286542
1.232687
1.214519
1.226198
1.288813
1.372517
1.441621
1.465304
1.438052
1.383547
1.308928
1.229118
1.142819
1.073066
1.021482
1.00526
1.044841
1.142819
1.301142
1.478282
1.665154
1.862084
2.04474
2.179703
2.264056
2.286766
2.208578
2.044415
1.842943
1.615841
1.39912
1.230416
1.144441
1.103563
1.079879
1.061387
1.050032
1.057169
1.039001
0.966977
0.853426
0.721707
0.546838
0.319412
0.13481
0.055324
0.023855
0.012175
0.006984
0.163036
0.475788
0.786269
1.070146
1.254748
1.373814
1.447785
1.488014
1.477957
1.428319
1.351429
1.23658
1.101941
0.974764
0.890736
0.861537
0.893007
0.993905
1.140548
1.314119
1.478606
1.625574
1.783572
1.88155
1.833534
1.678131
1.477633
1.258641
1.061062
0.939076
0.887491
0.900793
0.960164
1.057818
1.192782
1.351753
1.517213
1.66775
1.823801
1.975636
2.103786
2.191058
2.231937
2.217662
2.098595
1.879279
1.598321
1.271618
0.957569
0.696401
0.512448
0.411875
0.399222
0.479032
0.643519
0.886194
1.1678
1.434483
1.640822
1.776434
1.834508
1.799145
1.673914
1.427995
1.077608
0.716192
0.401168
0.193857
0.12605
0.259392
0.529643
0.82001
1.01986
1.121082
1.136655
1.114594
1.087341
1.044192
0.99942
0.995527
1.054574
1.168774
1.322554
1.485743
1.629467
1.730041
1.74464
1.610974
1.434159
1.275187
1.126598
0.961137
0.783673
0.627297
0.503689
0.4401
0.439127
0.472219
0.499147
0.564682
0.701268
0.822605
0.904362
0.99131
1.119784
1.312497
1.523378
1.723876
1.886417
1.988613
2.00743
1.964605
1.907829
1.816988
1.621031
1.320932
1.006882
0.736306
0.556571
0.558193
0.710676
0.991958
1.360837
1.737503
2.071667
2.339324
2.545987
2.652401
2.65305
2.567724
2.408428
2.223177
2.051228
1.917238
1.819908
1.754049
1.722579
1.705059
1.714792
1.746911
1.786167
1.82153
1.832237
1.811149
1.732312
1.568474
1.324176
1.020833
0.70581
0.435883
0.241224
0.114047
0.047862
0.021259
0.010553
0.006011
0.004064
0.003415
0.002442
0.002442
0.002766
0.003091
0.002766
0.192235
0.665256
1.140873
1.50748
1.723552
1.840347
1.875062
1.816664
1.782274
1.879928
2.044091
2.207604
2.339973
2.408752
2.398046
2.368198
2.319858
2.212795
2.080427
1.940597
1.805958
1.687216
1.5821
1.507805
1.458491
1.447136
1.464655
1.496774
1.537004
1.563607
1.551603
1.486717
1.425075
1.380303
1.294978
1.17656
1.078257
1.006233
0.940374
0.92253
0.940374
0.973466
1.031539
1.101941
1.179155
1.251179
1.291084
1.288489
1.238851
1.149308
0.981577
0.760314
0.56014
0.418688
0.335309
0.337255
0.480979
0.729169
1.03965
1.36473
1.671967
1.9247
2.080427
2.108328
1.983422
1.695002
1.258317
0.74539
0.337255
0.135135
0.055973
0.030668
0.276911
0.663634
1.097723
1.549008
1.964605
2.290335
2.467475
2.462284
2.302987
1.95033
1.423128
0.830716
0.343744
0.135783
0.056622
0.025477
0.013148
0.008606
0.356397
0.86251
1.353375
1.799793
2.172566
2.433409
2.588812
2.641046
2.591408
2.48175
2.303636
2.076858
1.842618
1.627845
1.446487
1.320608
1.283298
1.294978
1.331314
1.401716
1.479904
1.578531
1.706357
1.848458
1.941246
1.98764
1.982124
1.883172
1.718037
1.525649
1.343318
1.192782
1.091883
1.035757
1.006233
1.008829
0.974764
0.861861
0.732089
0.668176
0.652603
0.66266
0.703863
0.75415
0.778158
0.799246
0.840449
0.902415
0.990336
1.095128
1.190186
1.271294
1.327096
1.249882
1.004611
0.681802
0.385271
0.16336
0.066031
0.028397
0.01477
0.164982
0.492009
0.867052
1.189537
1.437079
1.683971
1.938001
2.174188
2.400966
2.591083
2.708852
2.715665
2.579079
2.313045
1.977907
1.591833
1.17656
0.827472
0.600694
0.490712
0.501418
0.630217
0.847911
1.115567
1.416639
1.715766
1.977582
2.172566
2.289686
2.314667
2.252052
2.135256
1.97888
1.772866
1.565878
1.388089
1.247611
1.144117
1.100319
1.117189
1.184671
1.310226
1.4533
1.593779
1.720956
1.813095
1.841321
1.778705
1.65315
1.475037
1.27389
1.087666
0.896251
0.586419
0.239277
0.094256
0.039103
0.018015
0.009255
0.005686
0.004064
0.272369
0.883598
1.479904
1.910425
2.146611
2.22415
2.211822
2.10995
1.908154
1.645688
1.357593
1.115891
0.974764
0.960813
1.058142
1.217114
1.39912
1.562309
1.65607
1.657043
1.57918
1.397822
1.123353
0.838502
0.60264
0.412848
0.289564
0.307732
0.439451
0.635408
0.90274
1.218736
1.526622
1.751129
1.8676
1.877333
1.784221
1.623951
1.402364
1.104212
0.75707
0.476437
0.305137
0.24025
0.291186
0.439776
0.680504
1.018886
1.355971
1.605134
1.750155
1.781301
1.640173
1.41891
1.195377
0.954649
0.753501
0.641248
0.639626
0.721382
0.883598
1.122704
1.395551
1.694678
1.981475
2.224799
2.409726
2.540472
2.606332
2.589786
2.524575
2.410375
2.24167
2.057717
1.88155
1.722903
1.560363
1.39912
1.244366
1.098372
0.999096
0.929019
0.880678
0.851804
0.824552
0.789513
0.763234
0.793406
0.877434
0.980928
1.10778
1.259939
1.42475
1.557118
1.581451
1.411449
1.111998
0.714245
0.31195
0.121833
0.050134
0.022232
0.011526
0.007633
0.275613
0.685371
1.069173
1.416315
1.710899
1.920158
2.031438
2.06161
2.050579
2.037278
2.032087
2.038575
2.076858
2.148558
2.202738
2.217013
2.231288
2.240048
2.186192
2.071343
1.926322
1.772541
1.615516
1.477633
1.371868
1.286867
1.213545
1.130166
1.051329
0.994229
0.96795
0.980279
1.020508
1.082475
1.13633
1.180129
1.243717
1.312821
1.34786
1.320283
1.226847
1.099021
0.988714
0.949458
0.995527
1.115567
1.26805
1.454922
1.621356
1.717388
1.768324
1.771243
1.722254
1.570096
1.360513
1.133411
0.906308
0.718463
0.571495
0.487792
0.502716
0.600045
0.733386
0.927397
1.212572
1.500992
1.722903
1.80174
1.641795
1.328718
0.956271
0.552678
0.233437
0.093283
0.039103
0.01769
0.008931
0.045591
0.390787
0.797624
1.209976
1.573989
1.835157
1.969471
1.974662
1.882848
1.74464
1.53895
1.249882
0.917664
0.644492
0.461188
0.3976
0.510177
0.746364
1.058791
1.426372
1.800442
2.098595
2.289361
2.38442
2.375985
2.304285
2.193005
2.081076
1.986991
1.933135
1.92762
1.947086
1.977258
2.020083
2.042793
1.995101
1.857542
1.620707
1.295626
0.947187
0.625351
0.371321
0.238628
0.270747
0.458268
0.721058
1.001042
1.260588
1.476984
1.666128
1.792656
1.859489
1.876035
1.862733
1.802389
1.661585
1.49353
1.285569
1.017264
0.728195
0.452753
0.247063
0.121833
0.113398
0.233437
0.451455
0.76583
1.092532
1.348509
1.501316
1.560687
1.517213
1.4108
1.315092
1.219709
1.139899
1.084421
1.087341
1.117513
1.186617
1.322879
1.497099
1.688838
1.855596
1.892581
1.830614
1.715766
1.512347
1.28784
1.107456
0.962111
0.807032
0.673367
0.607831
0.58577
0.58869
0.673367
0.849533
1.086044
1.342669
1.560687
1.743342
1.908478
2.03014
2.053499
1.974987
1.848458
1.693704
1.507156
1.29368
1.040623
0.752203
0.485845
0.302541
0.207483
0.207807
0.338229
0.568251
0.853426
1.150605
1.434483
1.658341
1.814068
1.917238
1.954223
1.950979
1.874413
1.715117
1.530515
1.368299
1.247611
1.192782
1.252153
1.415991
1.618112
1.806931
1.92178
1.82153
1.510725
1.108754
0.694779
0.34342
0.153303
0.113073
0.213971
0.409928
0.67434
0.965031
1.240473
1.469522
1.614543
1.631089
1.540897
1.38517
1.151254
0.86543
0.62016
0.430043
0.310003
0.317465
0.464108
0.673042
0.873216
1.099994
1.332936
1.530191
1.639524
1.62168
1.488988
1.290111
1.061711
0.818712
0.600694
0.448535
0.338553
0.258419
0.27172
0.445291
0.74247
1.074364
1.383872
1.636604
1.853325
2.020083
2.103786
2.099893
2.023651
1.897447
1.733934
1.579829
1.457193
1.320932
1.187591
1.073391
0.972492
0.883923
0.850182
0.879705
0.95692
1.100643
1.260263
1.395227
1.495476
1.58502
1.67067
1.73588
1.762808
1.724201
1.610974
1.440647
1.233336
1.045814
0.889438
0.798922
0.757719
0.750906
0.796651
0.87127
0.982225
1.131464
1.277134
1.3962
1.464331
1.474064
1.405933
1.265779
1.071444
0.803464
0.484223
0.209429
0.084199
0.034885
0.016393
0.19775
0.516017
0.837205
1.147361
1.431563
1.640497
1.74172
1.754049
1.691433
1.592481
1.459464
1.287191
1.090261
0.873216
0.590637
0.280804
0.111776
0.045916
0.019961
0.010228
0.006335
0.004389
0.072844
0.302217
0.506933
0.69121
0.892358
1.102914
1.306333
1.488988
1.662559
1.803362
1.924051
2.038251
2.077183
2.054473
2.003212
1.926646
1.815042
1.661585
1.473091
1.272916
1.091559
0.961137
0.923179
0.986443
1.112647
1.295951
1.491583
1.67878
1.838725
1.957143
2.005808
1.978231
1.868249
1.667425
1.375112
1.021482
0.64871
0.317465
0.126375
0.05208
0.02353
0.012175
0.026126
0.325251
0.69413
1.036406
1.317363
1.50748
1.61876
1.652501
1.609028
1.52208
1.400093
1.227171
0.968275
0.633786
0.293133
0.11502
0.047214
0.020286
0.010228
0.005686
0.053378
0.318438
0.526075
0.675638
0.763883
0.805086
0.819361
0.747013
0.599072
0.439451
0.299621
0.169524
0.079332
0.040725
0.073168
0.181528
0.345042
0.524777
0.69121
0.818387
0.930316
1.029268
1.118811
1.186293
1.18532
1.157743
1.126273
1.086692
1.067875
1.098372
1.163258
1.23658
1.333261
1.424101
1.471468
1.451678
1.387441
1.275836
1.111025
0.929019
0.772967
0.653252
0.539376
0.438154
0.376187
0.353153
0.381054
0.443993
0.548136
0.698997
0.856995
0.997474
1.070471
1.028295
0.820983
0.430367
0.16628
0.06668
0.028397
0.013473
0.007633
0.004713
0.00374
0.003091
0.06668
0.48033
0.887491
1.191159
1.38517
1.466602
1.442594
1.319959
1.13925
0.922854
0.695428
0.516666
0.403764
0.317141
0.233113
0.148112
0.063111
0.026126
0.011526
0.009904
0.003415
0.002442
0.002118
0.001144
0.002766
0.003415
1.13925
3.795053
6.177378
8.664526
10.595293
10.631631
10.631631
10.631631
9.633637
8.326459
6.806461
6.052794
5.702403
5.883439
7.405699
9.155083
10.631631
10.631631
10.631631
10.631631
10.631631
10.631631
10.631631
10.631631
10.631631
10.631631
10.631631
10.631631
10.631631
10.631631
10.631631
10.631631
10.631631
10.631631
10.631631
10.631631
10.631631
10.631631
10.631631
10.631631
10.631631
10.631631
10.631631
10.631631
10.631631
10.631631
10.631631
10.631631
10.631631
10.631631
10.631631
10.631631
10.631631
10.631631
10.631631
10.631631
10.631631
10.631631
10.631631
10.631631
10.631631
10.631631
10.631631
10.631631
10.631631
10.631631
10.631631
10.631631
10.631631
10.631631
10.631631
10.631631
10.631631
10.631631
10.631631
10.631631
10.631631
10.631631
10.631631
10.631631
10.631631
10.631631
10.631631
10.631631
10.631631
10.631631
10.631631
10.631631
10.631631
10.631631
10.631631
10.631631
10.631631
10.631631
10.631631
9.286807
7.88814
7.956921
8.799494
10.417821
10.631631
10.631631
10.631631
10.631631
10.631631
10.631631
10.631631
10.631631
10.631631
10.631631
10.631631
10.631631
10.631631
10.631631
10.631631
10.631631
10.631631
10.631631
10.631631
10.631631
10.631631
10.631631
10.631631
10.631631
10.631631
9.64921
8.854325
8.291094
8.023431
7.927397
8.297259
8.73201
8.664851
8.30829
7.614637
8.074368
8.624295
9.015248
8.989617
7.852127
7.287927
7.682769
7.834932
8.14023
8.723899
9.451948
10.340602
10.631631
10.631631
10.631631
10.631631
10.631631
10.631631
10.631631
10.092401
8.424764
6.953756
6.212417
5.72998
5.631027
5.44837
5.898038
6.565404
7.536447
9.288429
10.627413
10.631631
10.631631
10.631631
10.631631
10.631631
10.631631
10.631631
10.034326
8.606451
6.74352
5.272526
4.202866
3.744442
3.701941
4.518216
5.882465
7.481617
9.30822
10.631631
10.631631
10.631631
10.631631
10.631631
10.287718
9.032443
7.576029
5.401327
3.011548
1.511698
1.226198
0.879056
0.529968
0.244468
0.100096
0.042672
0.013148
0.008931
1.247611
3.182524
4.519838
5.210235
5.553812
5.335467
4.953931
4.345617
3.98874
3.250006
2.494402
2.021056
1.420208
0.802166
0.327522
0.129944
0.054676
0.024503
0.014122
0.342122
1.026673
2.197547
2.575835
2.894428
2.955096
3.058266
3.170844
3.333061
4.155174
4.913701
5.680666
6.088807
6.209821
5.340333
3.752553
1.61065
0.762585
0.556571
0.539052
0.687642
0.9394
1.209976
1.396525
1.508129
1.624925
1.766053
1.888039
1.9101
1.804011
1.600592
1.32223
1.0682
0.842395
0.736306
0.753501
0.872568
1.101941
1.388414
1.693704
1.954547
2.1531
2.264056
2.286441
2.266002
2.189112
2.081076
2.374687
2.642019
2.586866
1.714143
1.669372
1.646337
1.645364
1.609028
1.495801
1.319634
1.125949
0.949458
0.817414
0.752528
0.765505
0.837529
0.954973
1.084097
1.217438
1.340074
1.472117
1.611623
1.713819
1.780003
1.793954
1.730365
1.530191
1.178507
0.74247
0.321034
0.125402
0.051756
0.023855
0.012499
0.007309
0.10918
0.496551
0.937454
1.332287
1.621031
1.809202
1.892581
1.877982
1.810175
1.737178
1.663532
1.602214
1.546412
1.450705
1.326772
1.213545
1.074688
0.995852
0.950431
0.940698
0.938103
0.97379
1.052303
1.173316
1.312821
1.449732
1.563283
1.62168
1.638551
1.621356
1.552576
1.436105
1.281027
1.032188
0.712947
0.439451
0.290213
0.261987
0.366454
0.595503
0.923179
1.28492
1.639524
1.937677
2.083671
2.101191
2.001266
1.748209
1.391334
1.032512
0.739551
0.547487
0.515368
0.640275
0.86835
1.178507
1.514618
1.840996
2.129416
2.348084
2.481425
2.518735
2.480776
2.386042
2.238101
2.012945
1.730689
1.458491
1.219385
1.013695
0.878407
0.841422
0.912148
1.063982
1.26513
1.502614
1.736205
1.913669
2.062908
2.182623
2.189761
2.068748
1.832561
1.450056
0.996825
0.586094
0.302866
0.171795
0.203265
0.376187
0.645465
0.959515
1.305359
1.648284
1.951303
2.222853
2.438276
2.532361
2.446711
2.24751
2.002888
1.739774
1.49353
1.324501
1.27389
1.381925
1.610974
1.917238
2.260811
2.617038
2.95023
3.143916
3.217563
3.24741
3.258441
3.263632
3.265903
3.266552
3.266227
3.240273
3.248059
3.259739
3.264605
3.266552
3.267525
3.268174
3.268823
3.268498
3.056644
2.752326
2.457093
2.23291
2.104435
2.040522
2.03306
2.097946
2.235506
2.392531
2.554098
2.698146
2.762059
2.714692
2.565778
2.363332
2.104759
1.782923
1.41372
1.0682
0.8398
0.742146
0.740524
0.844666
1.069822
1.360188
1.673265
1.969796
2.15602
2.277357
2.364954
2.394153
2.316938
2.115466
1.852027
1.54771
1.244366
1.002989
0.861537
0.846289
0.904362
1.028944
1.205434
1.403013
1.605134
1.778705
1.926322
2.020407
2.046362
2.017812
1.954223
1.876359
1.751453
1.573989
1.372192
1.180778
1.010127
0.925774
0.950431
1.073391
1.301142
1.580802
1.873764
2.141096
2.33608
2.426596
2.379229
2.214742
1.953899
1.616489
1.280054
0.977359
0.736631
0.591285
0.580579
0.696401
0.894953
1.176236
1.495476
1.811149
2.073614
2.272815
2.403237
2.456768
2.452226
2.345488
2.122928
1.831588
1.509427
1.196026
0.91085
0.660389
0.43718
0.28048
0.201643
0.216891
0.324603
0.525426
0.813521
1.135033
1.449732
1.703762
1.846187
1.878955
1.829966
1.7534
1.666128
1.59021
1.535381
1.460438
1.419235
1.434808
1.494179
1.55647
1.561336
1.434483
1.205759
0.94524
0.670447
0.421608
0.235059
0.139352
0.15752
0.281129
0.51991
0.825525
1.160338
1.531164
1.890959
2.204036
2.425623
2.533659
2.542094
2.45839
2.302339
2.062583
1.770595
1.470171
1.213221
1.013695
0.889438
0.875163
0.956595
1.134708
1.382899
1.669696
1.950979
2.175161
2.301365
2.296499
2.183272
2.004834
1.757293
1.4679
1.135682
0.769723
0.426474
0.179582
0.072844
0.031316
0.015095
0.008606
0.098474
0.455349
0.825525
1.162934
1.419235
1.610974
1.737827
1.769621
1.662559
1.444541
1.218412
1.070795
1.028295
1.064307
1.182724
1.387441
1.587291
1.744316
1.815691
1.750804
1.520133
1.191808
0.872243
0.5689
0.297999
0.132215
0.060191
0.098474
0.269125
0.587068
1.019211
1.494179
1.942219
2.275086
2.478505
2.589137
2.61574
2.52717
2.367549
2.187814
1.976284
1.762159
1.564905
1.420533
1.337154
1.309577
1.345913
1.435457
1.591184
1.777083
1.936379
2.026571
2.05285
2.023651
1.924375
1.795576
1.652177
1.484121
1.330341
1.208679
1.123029
1.082799
1.115567
1.200244
1.315417
1.467575
1.621356
1.747884
1.830939
1.85884
1.806607
1.63336
1.321581
0.878083
0.410901
0.161414
0.065382
0.029045
0.014122
0.008282
0.161414
0.578308
1.003962
1.333585
1.483797
1.485095
1.424101
1.314119
1.129842
0.882301
0.59453
0.317141
0.132864
0.056622
0.099447
0.282102
0.505635
0.721707
0.950107
1.220358
1.499694
1.758266
1.982124
2.118061
2.094378
1.942543
1.715441
1.438701
1.162609
0.94232
0.783024
0.684073
0.616591
0.608156
0.701268
0.901118
1.157094
1.426372
1.686567
1.914318
2.047984
2.071667
2.035007
1.943192
1.803687
1.642444
1.512996
1.425724
1.375761
1.3962
1.472766
1.584371
1.734907
1.887714
2.000617
2.050579
2.051553
1.989911
1.856569
1.636604
1.303737
0.92545
0.549434
0.23214
0.092634
0.039103
0.018339
0.00958
0.005686
0.004064
0.003415
0.088416
0.556896
1.070146
1.520458
1.876035
2.120657
2.224475
2.205982
2.091458
1.89615
1.631413
1.369921
1.169098
1.00526
0.908904
0.91669
1.013695
1.166503
1.37057
1.577233
1.708628
1.792332
1.825424
1.809851
1.752102
1.652177
1.544466
1.45038
1.393605
1.312821
1.110052
0.847911
0.599721
0.39468
0.258419
0.224029
0.287942
0.389164
0.486818
0.601018
0.756097
0.930965
1.084746
1.175262
1.248259
1.341696
1.445514
1.57334
1.738151
1.896799
2.024949
2.106706
2.129741
2.095675
2.029491
1.939948
1.809526
1.64212
1.437728
1.236255
1.063009
0.935507
0.852777
0.846613
0.969897
1.165854
1.38225
1.596699
1.803687
1.976284
2.057717
2.015216
1.782599
1.344291
0.798597
0.335633
0.13189
0.054676
0.024503
0.012499
0.029694
0.418039
0.810601
1.103563
1.343318
1.567825
1.738476
1.820557
1.829966
1.772217
1.649257
1.457193
1.228469
0.972817
0.722031
0.556247
0.50596
0.559167
0.698672
0.871594
1.055547
1.269996
1.487041
1.661585
1.794927
1.859489
1.827046
1.74464
1.625249
1.466278
1.224251
0.889762
0.544567
0.269774
0.123131
0.088741
0.176337
0.326874
0.506284
0.720409
0.959515
1.193106
1.380303
1.519809
1.629142
1.728094
1.80758
1.854947
1.891932
1.915616
1.945788
2.000941
2.051553
2.051553
2.015865
1.957143
1.834832
1.669372
1.488014
1.287191
1.088315
0.923828
0.847911
0.871919
0.968599
1.122055
1.303088
1.505534
1.705059
1.857218
1.946437
1.942219
1.814393
1.606756
1.36473
1.089612
0.735009
0.34342
0.13481
0.055649
0.024828
0.012499
0.006984
0.095878
0.56598
1.067875
1.502614
1.833534
2.034682
2.023003
1.753724
1.390036
1.047761
0.72852
0.432314
0.211052
0.091661
0.039427
0.02061
0.197101
0.502391
0.846937
1.192457
1.525
1.807255
1.999319
2.077507
2.06161
1.957143
1.736529
1.459464
1.2249
1.09091
1.037054
1.067227
1.141197
1.140873
1.012398
0.847586
0.704188
0.628271
0.6685
0.837205
1.041921
1.232687
1.385818
1.482824
1.56166
1.635955
1.704735
1.766701
1.835481
1.903612
1.970769
2.043766
2.096973
2.122603
2.111573
2.065503
1.979529
1.866951
1.749506
1.615192
1.48185
1.349158
1.209976
1.061387
0.914744
0.803139
0.716516
0.67726
0.720734
0.817739
0.917339
0.981252
0.97087
0.851804
0.660714
0.398897
0.161414
0.064084
0.027748
0.013473
0.007633
0.004389
0.128646
0.553651
1.013371
1.43935
1.765404
1.994777
2.152127
2.235181
2.248158
2.234532
2.160237
1.995426
1.767675
1.512022
1.236904
1.012722
0.869323
0.799246
0.742146
0.787891
0.954324
1.154174
1.343967
1.538626
1.722254
1.83029
1.823153
1.734583
1.639524
1.557118
1.489961
1.441296
1.404311
1.370246
1.260588
1.083773
0.881976
0.632813
0.375538
0.183799
0.085821
0.061164
0.145192
0.291511
0.429718
0.560464
0.696077
0.837853
0.978332
1.131788
1.310875
1.491908
1.688838
1.892581
2.074263
2.212795
2.310449
2.367549
2.354248
2.286766
2.171592
1.987315
1.781625
1.572691
1.363757
1.174289
1.066578
1.061711
1.105185
1.213221
1.358242
1.493205
1.585344
1.63336
1.639849
1.609676
1.536679
1.405933
1.203488
0.917664
0.583175
0.273667
0.110153
0.045916
0.02061
0.010877
0.022232
0.155898
0.234735
0.234411
0.198399
0.12897
0.073817
0.082901
0.166929
0.317141
0.512773
0.726249
0.921881
1.09967
1.286218
1.491583
1.707655
1.915291
2.086591
2.188463
2.209875
2.172241
2.090809
1.986991
1.841645
1.657692
1.484121
1.354349
1.267076
1.213221
1.218087
1.27908
1.367975
1.494503
1.643093
1.775785
1.846512
1.839374
1.755346
1.611299
1.409178
1.152552
0.876461
0.622106
0.438478
0.345042
0.36321
0.495902
0.712623
0.994878
1.297249
1.545114
1.736529
1.875062
1.955521
1.960712
1.901665
1.806607
1.665803
1.506831
1.367326
1.269347
1.189862
1.075013
0.94524
0.827796
0.753501
0.75999
0.868674
1.026348
1.15677
1.236255
1.27097
1.277134
1.255397
1.175587
1.073715
0.979954
0.914419
0.889762
0.921881
0.985794
1.065604
1.172018
1.187266
1.035757
0.794055
0.510826
0.230193
0.091336
0.037805
0.01769
0.009255
0.114047
0.577335
1.018237
1.349482
1.572367
1.705384
1.787141
1.850405
1.867275
1.803038
1.685918
1.514293
1.260263
0.96276
0.70581
0.529968
0.445291
0.48617
0.663634
0.927721
1.237553
1.55063
1.800442
1.996724
2.167375
2.30169
2.396748
2.447035
2.449306
2.391882
2.290659
2.142718
1.906856
1.620058
1.325474
1.051978
0.790811
0.58869
0.480654
0.464433
0.545865
0.705485
0.929019
1.179155
1.43059
1.622329
1.703113
1.689162
1.596699
1.464007
1.326123
1.207057
1.115242
1.066902
1.100643
1.178507
1.25929
1.344291
1.415991
1.471793
1.500018
1.50456
1.474713
1.413395
1.309901
1.117838
0.834285
0.494605
0.205861
0.081928
0.034236
0.015744
0.008282
0.005038
0.00374
0.003091
0.251281
0.63119
1.000069
1.349807
1.669696
1.908154
2.005483
1.94157
1.721605
1.403013
1.075986
0.815468
0.64871
0.617564
0.722356
0.900793
1.108754
1.350455
1.61065
1.829641
1.971093
2.054797
2.053499
1.925997
1.714143
1.499694
1.324176
1.195053
1.136979
1.145415
1.212247
1.32807
1.464655
1.605134
1.736529
1.854298
1.908478
1.860462
1.731338
1.513645
1.236255
0.913122
0.587392
0.321358
0.15752
0.10626
0.170822
0.359641
0.629244
0.926099
1.224576
1.481526
1.658666
1.699544
1.658017
1.572042
1.416315
1.236904
1.075662
0.952053
0.87419
0.86835
0.929992
1.051329
1.221007
1.409178
1.623951
1.837428
1.993804
2.068099
2.058041
1.962658
1.781301
1.501965
1.1253
0.702241
0.301892
0.119237
0.049485
0.022232
0.010877
0.006335
0.193532
0.604587
1.017913
1.326772
1.469846
1.449407
1.300168
1.045814
0.710352
0.409928
0.199048
0.091012
0.095229
0.24609
0.469299
0.736631
1.028295
1.294329
1.502289
1.663208
1.768324
1.766053
1.670994
1.542195
1.407231
1.275187
1.160014
1.099021
1.099021
1.174938
1.349158
1.561985
1.787141
2.007105
2.202089
2.338026
2.401939
2.365278
2.163482
1.815366
1.359864
0.894304
0.447887
0.178284
0.073168
0.031641
0.015744
0.009255
0.031316
0.36029
0.754799
1.166178
1.571718
1.934433
2.169646
2.2673
2.263731
2.162833
2.010999
1.847485
1.712197
1.597024
1.514293
1.492232
1.48769
1.507805
1.555821
1.59897
1.628493
1.639849
1.629791
1.567825
1.471468
1.324176
1.104536
0.866403
0.636057
0.433287
0.287942
0.231491
0.261987
0.34634
0.457295
0.552029
0.638328
0.647736
0.594205
0.55722
0.466704
0.282751
0.115344
0.04624
0.019961
0.00958
0.006011
0.246739
0.710676
1.184671
1.63044
2.011323
2.267624
2.383771
2.356519
2.236154
2.056419
1.844241
1.641795
1.487366
1.349482
1.234633
1.179804
1.20219
1.312172
1.437079
1.484446
1.459789
1.390036
1.27389
1.145739
1.045165
0.980603
0.909877
0.851155
0.828769
0.822281
0.8398
0.869323
0.885869
0.887816
0.904362
0.940374
0.998123
1.128544
1.309901
1.501641
1.683322
1.84197
1.951952
1.976609
1.916264
1.799793
1.647635
1.470171
1.294004
1.148334
1.046463
0.997474
0.993581
1.034135
1.121731
1.233011
1.358566
1.481526
1.56166
1.548034
1.479579
1.38225
1.247611
1.120433
1.007207
0.919286
0.868026
0.865106
0.934534
1.065929
1.256695
1.482499
1.715441
1.887066
1.940272
1.915291
1.804984
1.586966
1.286867
0.893007
0.450806
0.17504
0.070897
0.030668
0.015095
0.007957
0.005038
0.003415
0.116966
0.65163
1.241122
1.783896
2.197223
2.412646
2.452226
2.351328
2.138825
1.855596
1.526297
1.203812
0.955622
0.836556
0.834609
0.917988
1.09967
1.333585
1.571069
1.760213
1.829966
1.754373
1.556794
1.275836
0.908904
0.526399
0.23214
0.093607
0.039752
0.018339
0.009904
0.224029
0.620809
1.043219
1.457842
1.838725
2.157642
2.38734
2.467799
2.397073
2.225448
1.977582
1.686567
1.351104
0.92837
0.477734
0.189315
0.076412
0.032939
0.015419
0.011202
0.326549
0.736631
1.152552
1.509751
1.708953
1.777732
1.778381
1.759239
1.735231
1.701166
1.66775
1.649257
1.648284
1.646013
1.617463
1.588913
1.564256
1.536355
1.501316
1.481526
1.446487
1.367975
1.254424
1.115891
0.961137
0.776536
0.564682
0.39176
0.306434
0.292484
0.345691
0.500769
0.712298
0.879056
0.980603
1.051329
1.079555
1.012722
0.846937
0.612049
0.336282
0.14065
0.057595
0.025477
0.098474
0.42031
0.821956
1.240473
1.639524
1.965578
2.170295
2.205658
2.030465
1.71609
1.313146
0.905984
0.576686
0.366454
0.278858
0.298324
0.425825
0.63411
0.886194
1.170396
1.475362
1.801416
2.092107
2.297148
2.415241
2.465852
2.4386
2.338999
2.173863
1.886741
1.417613
0.830716
0.344393
0.136108
0.056622
0.025477
0.013148
0.007633
0.132215
0.596801
1.096425
1.55063
1.903936
2.122603
2.231288
2.250754
2.177108
2.058041
1.935082
1.824775
1.734258
1.689487
1.689811
1.714468
1.777732
1.858516
1.926322
1.946761
1.911398
1.826072
1.694678
1.548034
1.392632
1.221007
1.048734
0.888465
0.742795
0.648385
0.644168
0.726249
0.855697
0.976386
1.059765
1.093505
1.086692
1.069498
1.02505
0.97671
0.922854
0.856022
0.790811
0.723978
0.662011
0.626324
0.627946
0.637679
0.584797
0.41739
0.196452
0.077061
0.031316
0.013797
0.007309
0.004713
0.00374
0.135135
0.459242
0.791784
1.06236
1.218087
1.26513
1.268699
1.261561
1.245664
1.260912
1.320283
1.431888
1.584371
1.769297
1.94157
2.054148
2.121306
2.133634
2.094702
2.036629
1.974338
1.897123
1.79006
1.627845
1.414693
1.203488
1.032512
0.866079
0.729169
0.656496
0.650981
0.689913
0.768101
0.887816
0.992932
1.069173
1.145415
1.246962
1.362135
1.480877
1.61357
1.723876
1.79882
1.794603
1.639849
1.387116
1.111998
0.819685
0.504662
0.244144
0.102691
0.043645
0.021908
0.185746
0.470597
0.766154
1.069822
1.373166
1.657043
1.936704
2.191058
2.380851
2.484669
2.510624
2.459364
2.328293
2.142069
1.906532
1.625574
1.268374
0.812872
0.368076
0.144868
0.059542
0.02645
0.013148
0.007309
0.005038
0.004713
0.281453
0.641248
0.928045
1.157419
1.331314
1.440647
1.48769
1.460762
1.3391
1.172991
1.051005
1.026348
1.047761
1.086044
1.157094
1.234633
1.267401
1.271618
1.27389
1.269672
1.265779
1.258641
1.214194
1.165854
1.168125
1.221332
1.290111
1.388414
1.509751
1.626547
1.74172
1.801091
1.759888
1.66191
1.557118
1.445514
1.321581
1.238851
1.209976
1.195701
1.188888
1.208679
1.262534
1.332936
1.440972
1.56458
1.686242
1.818286
1.934757
2.014567
2.032411
1.949357
1.744964
1.478282
1.206408
0.946538
0.751555
0.640599
0.601343
0.601667
0.616267
0.669473
0.764856
0.873216
0.904362
0.851155
0.774265
0.704188
0.633461
0.53451
0.476761
0.48033
0.532239
0.629568
0.719111
0.720085
0.630542
0.499471
0.37489
0.293782
0.307732
0.42323
0.616267
0.82293
1.038352
1.257992
1.446487
1.620058
1.761835
1.829641
1.805633
1.672616
1.414693
1.095452
0.82293
0.632813
0.533537
0.576037
0.735982
0.97379
1.243717
1.495152
1.692406
1.81342
1.850405
1.816664
1.740098
1.61876
1.478606
1.341696
1.217114
1.11946
1.053276
1.055871
1.154174
1.315092
1.486392
1.646662
1.780328
1.856893
1.87863
1.852027
1.750155
1.594753
1.409502
1.232362
1.089612
1.010127
1.010127
1.073066
1.206732
1.373814
1.534733
1.627845
1.592481
1.469197
1.30244
1.121082
0.932912
0.766803
0.626648
0.459242
0.312274
0.217865
0.194181
0.255823
0.392409
0.566304
0.710676
0.829094
0.937129
1.054249
1.143144
1.206732
1.257343
1.241122
1.175262
1.122055
1.109078
1.144441
1.19927
1.216141
1.147686
1.06528
1.050681
1.055547
1.057169
1.084746
1.14509
1.211599
1.262534
1.324501
1.387116
1.448109
1.503263
1.545114
1.542519
1.517538
1.531813
1.565878
1.591833
1.555821
1.438052
1.264481
1.097399
0.97087
0.895927
0.877758
0.917664
0.980279
1.040948
1.112971
1.195701
1.280703
1.395551
1.529866
1.67878
1.849432
2.000617
2.119683
2.209227
2.268598
2.267624
2.171917
1.996724
1.722579
1.367326
0.965355
0.5543
0.238304
0.095878
0.040725
0.019313
0.070248
0.358343
0.697374
1.022779
1.292707
1.472766
1.560687
1.572691
1.492881
1.332612
1.133411
0.883598
0.599072
0.348935
0.197425
0.141623
0.109829
0.130593
0.256148
0.429718
0.606858
0.786269
0.942969
1.049383
1.133086
1.182724
1.191159
1.182724
1.192457
1.227496
1.300493
1.416639
1.531813
1.548034
1.455247
1.302764
1.161636
1.049383
0.981577
0.954
0.945889
0.959515
0.989363
1.033161
1.098372
1.167151
1.212896
1.253775
1.323203
1.366677
1.370895
1.371868
1.382574
1.378357
1.310875
1.165854
0.954324
0.70873
0.489738
0.315194
0.22046
0.236682
0.348286
0.556896
0.860564
1.194404
1.490285
1.746911
1.953899
2.09892
2.181974
2.207604
2.190085
2.129092
2.042793
1.915291
1.733285
1.522729
1.283947
1.028619
0.737604
0.42323
0.178284
0.07187
0.030668
0.014446
0.008282
0.139352
0.497849
0.834609
1.118811
1.341696
1.472442
1.521106
1.508778
1.436754
1.265779
0.969897
0.636057
0.355099
0.200994
0.221433
0.368401
0.60264
0.873216
1.143468
1.348509
1.461411
1.49645
1.451029
1.371868
1.252153
1.09091
0.925774
0.775238
0.645465
0.553651
0.551705
0.646763
0.838827
1.104212
1.387441
1.616489
1.739449
1.787141
1.780003
1.708953
1.60773
1.520458
1.464007
1.432537
1.45038
1.499694
1.583397
1.714468
1.847809
1.933459
1.940272
1.877657
1.702464
1.41891
1.098372
0.7827
0.509204
0.316816
0.268152
0.349259
0.510502
0.748959
1.003314
1.235607
1.438052
1.554847
1.561012
1.506831
1.40788
1.2249
0.905984
0.468326
0.181853
0.073168
0.030992
0.015419
0.008606
0.005038
0.196452
0.701592
1.15969
1.498721
1.732636
1.878955
1.944815
1.916264
1.775461
1.556145
1.266428
0.905335
0.526075
0.224029
0.090039
0.037481
0.017366
0.07187
0.4401
0.920259
1.381925
1.761186
2.045713
2.15894
2.059663
1.846187
1.527271
1.008829
0.443345
0.172444
0.070248
0.030992
0.01477
0.007957
0.004713
0.055
0.53743
1.114594
1.645039
2.060961
2.31564
2.417836
2.415565
2.315965
2.104759
1.854622
1.619409
1.446487
1.337803
1.2966
1.31931
1.378357
1.476984
1.597348
1.727121
1.84716
1.952601
2.026571
2.039549
1.998995
1.912371
1.775137
1.616814
1.459464
1.311524
1.141846
0.89398
0.589339
0.33174
0.175689
0.106585
0.171795
0.377809
0.6685
0.924477
1.111349
1.265454
1.314119
1.21679
0.959191
0.559816
0.225327
0.089065
0.036507
0.016393
0.008282
0.004713
0.00374
0.170173
0.559167
0.908255
1.172991
1.371868
1.496125
1.508129
1.45038
1.368624
1.295951
1.204786
1.057818
0.893007
0.742795
0.650007
0.628595
0.652603
0.751555
0.96795
1.229442
1.401067
1.466278
1.399769
1.26513
1.120433
0.97087
0.830391
0.717165
0.6685
0.667851
0.727222
0.880678
1.10778
1.360188
1.604161
1.827695
1.990884
2.07037
2.078805
2.020407
1.902314
1.735231
1.55063
1.392956
1.281676
1.232038
1.237553
1.323203
1.482824
1.648933
1.792656
1.906532
1.950005
1.84197
1.63044
1.378032
1.096101
0.820659
0.584797
0.436532
0.391436
0.436856
0.538079
0.667202
0.821632
0.948809
1.004936
1.039001
1.076959
1.109078
1.112647
1.105185
1.063658
0.91669
0.715867
0.532888
0.3976
0.290213
0.248361
0.266205
0.249983
0.173418
0.081928
0.033912
0.01477
0.007309
0.004389
0.003415
0.173093
0.518288
0.862186
1.158716
1.409826
1.61876
1.791358
1.946112
2.076209
2.200467
2.332835
2.442818
2.516788
2.554098
2.54696
2.454497
2.258216
1.999968
1.701815
1.417613
1.183049
1.016615
0.932912
0.928045
1.002989
1.117189
1.262859
1.421506
1.561985
1.666128
1.711224
1.677483
1.559714
1.422479
1.288813
1.144117
1.020184
0.936481
0.882625
0.843369
0.851155
0.895602
0.939076
0.988065
1.009802
1.013695
0.986767
0.926099
0.830067
0.734684
0.674989
0.615293
0.557544
0.480005
0.387542
0.337904
0.342771
0.415119
0.552354
0.723978
0.876461
1.00234
1.107132
1.209652
1.305684
1.348184
1.320608
1.247611
1.144117
1.044516
0.965031
0.905011
0.884247
0.906633
0.970221
1.09383
1.308928
1.57334
1.840023
2.050579
2.160886
2.165753
2.029491
1.777732
1.453949
1.085719
0.723653
0.409928
0.194506
0.111127
0.193208
0.392409
0.665256
1.010775
1.327421
1.506183
1.535381
1.482499
1.392307
1.277134
1.152552
1.006882
0.873541
0.780753
0.736306
0.749284
0.831689
1.000394
1.230091
1.493854
1.776434
2.049282
2.275411
2.438276
2.528468
2.505109
2.403561
2.255296
2.041171
1.783896
1.495152
1.172018
0.782051
0.35445
0.138703
0.056947
0.025152
0.012824
0.007309
0.005038
0.004064
0.145516
0.605236
0.994878
1.220358
1.321581
1.403338
1.481201
1.503912
1.451029
1.387116
1.32223
1.254424
1.191159
1.120109
1.038028
0.935832
0.853102
0.787891
0.713596
0.641572
0.565331
0.5118
0.526075
0.616915
0.769074
0.948485
1.100643
1.214843
1.326772
1.445189
1.53895
1.582424
1.577558
1.54479
1.47082
1.377383
1.284596
1.190835
1.141197
1.144766
1.198297
1.28784
1.415666
1.580478
1.747235
1.917887
2.080103
2.222528
2.313045
2.302663
2.200791
2.025274
1.822828
1.599943
1.349158
1.126598
0.966004
0.876785
0.832014
0.852777
0.935507
1.060738
1.243393
1.433834
1.605134
1.720308
1.758591
1.726147
1.619409
1.4679
1.303413
1.153525
1.039974
0.978008
0.980279
1.024077
1.101941
1.154823
1.147686
1.100967
0.975088
0.804761
0.597125
0.383325
0.180879
0.073168
0.031641
0.01477
0.008606
0.005362
0.00374
0.003091
0.00374
0.142272
0.297026
0.36321
0.427123
0.532563
0.672069
0.8398
1.051329
1.303737
1.555496
1.743018
1.865329
1.940272
1.943192
1.876684
1.712521
1.47082
1.240797
1.034783
0.883274
0.829094
0.839476
0.881003
0.955622
1.04257
1.104861
1.157419
1.196999
1.236255
1.296924
1.382899
1.4679
1.547061
1.652177
1.775461
1.910425
2.065503
2.211173
2.339648
2.430489
2.468448
2.428867
2.327644
2.186516
1.997372
1.799793
1.615516
1.456869
1.319959
1.197648
1.094803
1.003314
0.921557
0.795353
0.607831
0.403764
0.240899
0.140325
0.070897
0.056622
0.149085
0.247712
0.366454
0.55138
0.722031
0.792757
0.79146
0.796326
0.827147
0.877758
0.917988
0.932263
0.912797
0.864781
0.781402
0.673367
0.592259
0.526075
0.441074
0.362561
0.323629
0.334011
0.404413
0.573442
0.821632
1.101941
1.378357
1.641795
1.892257
2.079129
2.191383
2.21896
2.155695
2.001266
1.760862
1.480877
1.20511
0.983848
0.847586
0.82293
0.89982
1.00234
1.020184
0.950756
0.86835
0.783024
0.69705
0.659092
0.720734
0.829418
0.9394
1.04549
1.171369
1.305684
1.437403
1.56458
1.69922
1.81861
1.862409
1.843916
1.775785
1.634982
1.416964
1.184022
0.98255
0.823578
0.719436
0.664607
0.658443
0.702565
0.801193
0.932587
1.086692
1.268374
1.4679
1.682025
1.901665
2.037278
2.012296
1.931513
1.816339
1.610001
1.323528
1.005585
0.690561
0.388191
0.167578
0.068626
0.029694
0.014446
0.007957
0.03229
0.312599
0.639626
0.957893
1.221007
1.411124
1.552252
1.601241
1.541546
1.346238
1.024077
0.651305
0.3259
0.13481
0.055324
0.036507
0.290213
0.662011
1.080528
1.48185
1.828019
2.08724
2.218311
2.224799
2.114492
1.964605
1.800442
1.627845
1.464331
1.334883
1.248908
1.198297
1.19635
1.234958
1.330989
1.49937
1.695975
1.881875
2.034682
2.142394
2.171268
2.13039
2.046362
1.904909
1.729067
1.542519
1.352402
1.147686
0.939725
0.777834
0.690886
0.703863
0.814819
0.991634
1.182075
1.34202
1.437403
1.414693
1.311848
1.157743
0.949782
0.707107
0.461837
0.284049
0.168551
0.077061
0.03229
0.01477
0.006984
0.004389
0.003091
0.003091
0.002442
0.003091
0.226624
0.605885
0.954
1.218087
1.380952
1.461735
1.49937
1.492557
1.462384
1.419235
1.367326
1.355646
1.378357
1.42767
1.457193
1.423777
1.355322
1.293355
1.226198
1.131464
1.057494
1.006882
0.988714
1.008829
1.091559
1.247935
1.436754
1.619409
1.753075
1.800118
1.755671
1.65899
1.531813
1.366028
1.191808
1.024726
0.872243
0.753826
0.691859
0.707756
0.799895
0.965679
1.1824
1.422804
1.680078
1.914642
2.104435
2.233559
2.313369
2.328618
2.272815
2.168348
2.006781
1.806282
1.611623
1.433834
1.262534
1.080204
0.870945
0.626973
0.328496
0.129944
0.052405
0.023206
0.011851
0.00666
0.014122
0.284373
0.599396
0.891709
1.17072
1.360837
1.415342
1.420857
1.412746
1.398471
1.345913
1.285245
1.254099
1.203488
1.103887
0.947187
0.713272
0.444642
0.224029
0.099447
0.049485
0.090039
0.163685
0.266529
0.423554
0.636057
0.875812
1.134708
1.444541
1.750804
1.990884
2.146287
2.251078
2.267624
2.128767
1.9101
1.654124
1.385494
1.133411
0.961462
0.913122
0.955946
1.108754
1.340074
1.602214
1.883821
2.092755
2.16705
2.137527
2.032087
1.853
1.620058
1.362784
1.088315
0.845315
0.6685
0.598747
0.622431
0.712623
0.85148
0.99942
1.161961
1.342669
1.506831
1.610325
1.667101
1.700842
1.690135
1.65023
1.58502
1.462709
1.313795
1.178182
1.05944
0.933561
0.810277
0.72268
0.694455
0.761612
0.89398
1.049058
1.198621
1.324176
1.377383
1.353375
1.276809
1.129517
0.927397
0.696077
0.479032
0.302541
0.201967
0.235059
0.359641
0.535483
0.752852
0.930316
0.995852
0.957893
0.861861
0.74831
0.6831
0.667202
0.612373
0.521857
0.44302
0.410253
0.47157
0.639626
0.883598
1.172018
1.497747
1.815691
2.091458
2.306881
2.46715
2.543067
2.472341
2.272815
1.986991
1.57626
1.091234
0.634435
0.292484
0.11794
0.04916
0.022557
0.011851
0.237331
0.624702
1.011424
1.379654
1.685269
1.902963
2.024625
2.080103
2.060961
1.983097
1.882848
1.789087
1.72193
1.661261
1.594753
1.528244
1.495801
1.5104
1.540897
1.574313
1.595401
1.605459
1.593455
1.559389
1.513969
1.43643
1.349158
1.254099
1.170071
1.111349
1.072742
1.044192
0.988714
0.9394
0.917988
0.888789
0.836231
0.786269
0.726573
0.607831
0.404413
0.182502
0.072844
0.030668
0.014446
0.007633
0.005038
0.003091
0.150058
0.564033
0.977359
1.314443
1.593455
1.846512
2.061286
2.200142
2.22999
2.1531
1.935082
1.629142
1.342345
1.176884
1.124002
1.134059
1.229118
1.379654
1.528568
1.632062
1.625249
1.534733
1.416639
1.30244
1.186942
1.071769
0.966653
0.876136
0.801841
0.769723
0.789189
0.823903
0.896251
1.022131
1.1824
1.372517
1.580478
1.784545
1.952925
2.067125
2.118386
2.098271
2.026571
1.915291
1.759888
1.596699
1.425724
1.240149
1.07112
0.954649
0.894953
0.899495
0.997798
1.172667
1.377383
1.558416
1.694029
1.75632
1.723552
1.616165
1.414693
1.100643
0.703863
0.322656
0.126375
0.05208
0.023206
0.011526
0.006335
0.005038
0.313572
0.716516
1.066253
1.361486
1.579829
1.717063
1.789736
1.804011
1.796874
1.785518
1.781301
1.773514
1.739125
1.673265
1.536355
1.30763
0.905011
0.423879
0.165307
0.067004
0.02937
0.014446
0.008606
0.017041
0.242197
0.455997
0.642546
0.876136
1.152552
1.421182
1.587939
1.63044
1.578855
1.403662
1.180129
0.986767
0.8398
0.735009
0.65455
0.623404
0.628919
0.658118
0.726573
0.848235
1.028619
1.256695
1.518187
1.765404
1.97304
2.157642
2.289037
2.367549
2.399993
2.388313
2.326995
2.191707
1.956818
1.654124
1.354349
1.113296
0.951729
0.886194
0.921232
1.051329
1.229767
1.410151
1.5821
1.750804
1.893879
2.004186
2.052526
1.975311
1.812771
1.598646
1.335856
1.091883
0.89982
0.767452
0.679531
0.655847
0.693806
0.782051
0.933885
1.079555
1.173316
1.20803
1.166503
1.044841
0.878732
0.730467
0.611076
0.543594
0.507258
0.480005
0.451455
0.423554
0.404413
0.398573
0.38884
0.412524
0.478708
0.598747
0.761288
0.915717
0.984496
0.968275
0.918312
0.824552
0.708081
0.613996
0.629244
0.757719
0.953027
1.18532
1.429617
1.688513
1.941246
2.136229
2.265029
2.331213
2.309152
2.184245
2.012296
1.829641
1.626547
1.410475
1.181102
0.959515
0.755448
0.598423
0.535808
0.563709
0.69997
0.916041
1.192457
1.465953
1.699544
1.85884
1.879604
1.777408
1.59605
1.360837
1.056196
0.696077
0.37489
0.157196
0.064084
0.027423
0.013797
0.221433
0.636381
1.062684
1.448109
1.74172
1.936704
2.066476
2.157642
2.151153
1.988288
1.692406
1.30244
0.852777
0.390787
0.153627
0.063435
0.027423
0.184124
0.554625
0.890087
1.143792
1.321257
1.414693
1.431239
1.299195
1.049707
0.792109
0.559816
0.354126
0.242197
0.290213
0.454375
0.695752
1.002665
1.318012
1.584046
1.773839
1.874413
1.870195
1.708304
1.452003
1.168774
0.899495
0.665905
0.487467
0.419985
0.48033
0.642221
0.843044
1.081177
1.36473
1.629142
1.83321
1.949032
1.990235
1.976284
1.922104
1.819584
1.635631
1.392307
1.112971
0.841422
0.607831
0.458268
0.453078
0.535483
0.69413
0.936156
1.208354
1.458491
1.668074
1.822504
1.911074
1.907505
1.805633
1.608379
1.37057
1.119784
0.880678
0.681802
0.549434
0.507258
0.554949
0.695103
0.87711
1.077933
1.25345
1.311848
1.246313
1.100643
0.908255
0.640599
0.341797
0.137406
0.055973
0.024179
0.011851
0.12605
0.523479
0.905335
1.193106
1.387441
1.533435
1.644391
1.730689
1.755671
1.736205
1.707006
1.621356
1.451029
1.229118
1.011749
0.814819
0.656172
0.567277
0.511151
0.523479
0.625351
0.783349
0.972492
1.145739
1.286218
1.372192
1.420857
1.463682
1.484121
1.503587
1.543168
1.611299
1.684945
1.753724
1.815042
1.884795
1.979529
2.047335
2.077832
2.073938
2.024949
1.92762
1.786492
1.654772
1.527271
1.381276
1.255072
1.181426
1.165529
1.209652
1.327745
1.49353
1.682349
1.892257
2.079778
2.217986
2.271193
2.249781
2.138825
1.952925
1.730041
1.480877
1.220683
0.992283
0.818063
0.709378
0.681802
0.750257
0.885545
1.058142
1.19635
1.203812
1.040948
0.789189
0.473192
0.198074
0.079008
0.033587
0.016068
0.00958
0.009904
0.030343
0.014122
0.00666
0.00374
0.002766
0.00666
0.325251
0.755123
1.157419
1.530191
1.865004
2.088862
2.187814
2.183921
2.114492
2.022354
1.906207
1.791683
1.726147
1.728743
1.781625
1.877657
2.018785
2.157317
2.277357
2.382473
2.48175
2.557667
2.581999
2.542743
2.420432
2.235181
2.011647
1.803038
1.623951
1.472442
1.387765
1.374463
1.417937
1.491259
1.557767
1.608703
1.639849
1.636929
1.577558
1.500018
1.420857
1.326772
1.240473
1.180778
1.15093
1.138602
1.157094
1.21095
1.27908
1.358242
1.381276
1.301142
1.139575
0.95108
0.774914
0.604911
0.480979
0.422905
0.392084
0.374565
0.407008
0.506609
0.666229
0.887167
1.140548
1.372517
1.51624
1.53895
1.464007
1.306982
1.084421
0.80833
0.464108
0.188017
0.075115
0.03229
0.015095
0.008282
0.005362
0.153303
0.652279
1.152552
1.602863
2.01035
2.352301
2.575835
2.617687
2.457417
2.137527
1.757293
1.373166
1.002665
0.707756
0.542621
0.512124
0.570197
0.706783
0.908579
1.158067
1.441621
1.716414
1.946437
2.094378
2.158291
2.152127
2.07329
1.954223
1.810824
1.657043
1.516889
1.41372
1.363433
1.359215
1.419559
1.53311
1.678456
1.868249
2.073938
2.262109
2.399668
2.47591
2.481101
2.421405
2.313045
2.148558
1.961036
1.780328
1.625249
1.512022
1.454274
1.440647
1.406258
1.349807
1.286218
1.179155
0.978008
0.717814
0.420959
0.171146
0.069275
0.030343
0.015095
0.008606
0.005686
0.004064
0.003415
0.002766
0.091336
0.519586
0.979954
1.369921
1.640822
1.761835
1.750804
1.667101
1.53311
1.406582
1.313795
1.255721
1.233336
1.245988
1.318986
1.442594
1.622329
1.828992
2.028842
2.231612
2.42465
2.575186
2.629366
2.587839
2.463906
2.271842
2.048308
1.813095
1.607405
1.455896
1.366353
1.340074
1.367001
1.412746
1.410475
1.400093
1.39328
1.365055
1.316066
1.251504
1.149957
1.011749
0.88814
0.789189
0.707107
0.701268
0.772967
0.899495
1.054574
1.224251
1.405284
1.574313
1.746262
1.9101
2.059339
2.173539
2.240048
2.255945
2.208578
2.104759
1.891283
1.549656
1.15385
0.792433
0.49136
0.317465
0.346015
0.449184
0.583823
0.803464
1.070471
1.308604
1.473091
1.53311
1.506507
1.394254
1.215816
0.992283
0.793082
0.660389
0.609454
0.627297
0.681153
0.747013
0.856346
1.039325
1.274538
1.533759
1.794278
2.012945
2.170944
2.228044
2.143691
1.912047
1.538301
1.077284
0.584472
0.23214
0.092958
0.039427
0.018664
0.009904
0.006011
0.048511
0.447562
0.919286
1.363108
1.745938
2.024949
2.21312
2.301041
2.277033
2.173539
2.040846
1.914967
1.810175
1.751778
1.724525
1.726472
1.778705
1.86468
1.965578
2.054473
2.130065
2.155371
2.118386
2.040846
1.930215
1.814717
1.710575
1.631413
1.588264
1.578855
1.587615
1.584695
1.584046
1.611947
1.6246
1.521431
1.318012
1.09383
0.818387
0.435883
0.170822
0.069599
0.030668
0.015095
0.008606
0.005686
0.098149
0.576362
1.087017
1.542843
1.874088
2.060637
2.109626
2.064205
1.877333
1.485095
0.970221
0.452753
0.176662
0.071546
0.031641
0.015419
0.008606
0.12897
0.613671
1.10778
1.55063
1.893554
2.119359
2.233559
2.259838
2.193654
2.043766
1.851378
1.620058
1.381925
1.191484
1.094803
1.079231
1.133411
1.275187
1.477633
1.719983
1.979204
2.211822
2.394153
2.5103
2.533983
2.446711
2.296499
2.122928
1.908803
1.680403
1.461087
1.27908
1.161636
1.128544
1.180453
1.293355
1.4679
1.671643
1.871168
2.038251
2.155046
2.199169
2.144989
2.011323
1.819259
1.596699
1.378357
1.128869
0.795353
0.425501
0.171795
0.069599
0.030019
0.015419
0.29735
0.742146
1.141521
1.401067
1.533435
1.616814
1.662883
1.634658
1.546737
1.389063
1.114269
0.70873
0.30319
0.118913
0.048511
0.021259
0.010877
0.030992
0.42615
0.928694
1.436754
1.875062
2.163157
2.271518
2.212795
2.047659
1.817313
1.570096
1.368948
1.24242
1.168449
1.134059
1.154823
1.218736
1.294004
1.357268
1.420533
1.480228
1.510725
1.535057
1.558092
1.531488
1.45038
1.346887
1.269023
1.244366
1.304062
1.436754
1.609676
1.808553
1.985044
2.129092
2.225448
2.272815
2.246536
2.146611
1.993155
1.801416
1.602214
1.429292
1.327096
1.296924
1.339425
1.452327
1.591833
1.748533
1.907829
2.036953
2.118061
2.146936
2.127794
2.049606
1.935406
1.790709
1.577882
1.266428
0.832987
0.36029
0.141623
0.058244
0.026126
0.013148
0.007633
0.005038
0.165307
0.636057
1.078906
1.350131
1.436754
1.442918
1.389387
1.293355
1.160663
0.942645
0.695752
0.492983
0.383325
0.364183
0.404088
0.55138
0.804761
1.096425
1.381925
1.637902
1.838076
1.949681
1.980502
1.930215
1.805309
1.59313
1.318012
1.061062
0.884572
0.840449
0.936805
1.145739
1.403662
1.641471
1.839699
1.992182
2.100866
2.142394
2.113844
2.036304
1.903612
1.741396
1.567825
1.403338
1.257992
1.165205
1.134384
1.176236
1.331963
1.561336
1.817313
2.060961
2.268922
2.40129
2.413943
2.338999
2.201116
2.007105
1.802713
1.623951
1.476335
1.352078
1.276161
1.23366
1.195377
1.162285
1.113296
1.091883
1.11362
1.163583
1.205759
1.227496
1.217763
1.127571
0.981577
0.823903
0.705161
0.659416
0.674015
0.709378
0.695103
0.641572
0.529968
0.331416
0.141948
0.057271
0.024828
0.01769
0.200345
0.489089
0.813521
1.154823
1.470495
1.683647
1.739774
1.745938
1.754049
1.765728
1.796225
1.850729
1.846512
1.733609
1.57042
1.396849
1.199919
1.003314
0.835907
0.711001
0.639626
0.646763
0.764207
0.96795
1.223603
1.482175
1.753075
2.059015
2.34419
2.5674
2.694577
2.732536
2.693928
2.586866
2.443791
2.2673
2.079129
1.906532
1.772217
1.676509
1.609676
1.598646
1.631089
1.697597
1.797522
1.902963
1.990235
2.042469
2.023003
1.886417
1.669047
1.422479
1.163583
0.914419
0.67434
0.439776
0.224678
0.096852
0.043969
0.094905
0.336931
0.689588
1.095777
1.499045
1.845863
2.084645
2.118386
1.979529
1.756644
1.467251
1.012073
0.463784
0.180555
0.072844
0.031641
0.015419
0.008282
0.006011
0.387218
0.973141
1.548359
2.008079
2.291957
2.36982
2.309801
2.180677
2.007754
1.82737
1.65023
1.454274
1.256695
1.09383
0.941996
0.791784
0.673367
0.585121
0.532563
0.498174
0.513746
0.58285
0.711325
0.890087
1.066253
1.25053
1.42475
1.582424
1.735556
1.87863
1.965578
1.972716
1.918536
1.820882
1.687216
1.531488
1.377059
1.253126
1.147037
1.08215
1.075337
1.097074
1.164232
1.274214
1.394254
1.512347
1.665803
1.856893
2.06453
2.270544
2.42173
2.50154
2.50154
2.439898
2.345813
2.193329
1.974987
1.716739
1.441945
1.179155
0.954324
0.798597
0.755448
0.845315
1.022779
1.237878
1.479579
1.694353
1.848783
1.943192
1.986666
1.938001
1.825748
1.663856
1.449083
1.201866
0.865106
0.441074
0.17212
0.069275
0.030019
0.014446
0.007957
0.004713
0.004064
0.133837
0.638004
1.154823
1.591833
1.944166
2.2102
2.368523
2.420432
2.372092
2.200791
1.951303
1.676185
1.321581
0.909877
0.535483
0.247063
0.102691
0.044618
0.025477
0.17212
0.376836
0.598423
0.80541
1.004611
1.218087
1.444216
1.651528
1.816015
1.957143
2.061286
2.133309
2.20436
2.256269
2.290983
2.31564
2.326347
2.30169
2.253349
2.189436
2.108004
2.039224
1.976933
1.922104
1.882199
1.884146
1.933459
1.997372
2.078156
2.150504
2.160237
2.09016
1.981151
1.846512
1.686891
1.527595
1.345264
1.140224
0.953675
0.79146
0.673691
0.650656
0.724951
0.870945
1.092532
1.37641
1.652501
1.879279
2.029816
2.104111
2.081076
1.961036
1.778057
1.504885
1.115242
0.598747
0.231815
0.092634
0.039427
0.018339
0.00958
0.005686
0.004389
0.031641
0.483899
1.017913
1.522404
1.962009
2.306232
2.536579
2.630664
2.602438
2.47883
2.29877
2.055446
1.72485
1.355971
1.012398
0.737928
0.553327
0.462486
0.478383
0.5689
0.669473
0.748959
0.812548
0.848235
0.864457
0.906308
0.98547
1.124327
1.308279
1.52792
1.749182
1.917562
1.993155
1.946437
1.773514
1.551928
1.332287
1.122055
0.951404
0.848235
0.797624
0.762261
0.75707
0.804761
0.933236
1.148659
1.437079
1.729392
2.008403
2.277033
2.506406
2.674138
2.774712
2.811697
2.770494
2.654672
2.444115
2.128443
1.786167
1.490934
1.280054
1.14509
1.070795
1.063333
1.09675
1.169423
1.283947
1.42475
1.571393
1.702139
1.792007
1.809202
1.769297
1.670345
1.526297
1.345589
1.088315
0.773616
0.477734
0.245766
0.102691
0.042347
0.018988
0.009904
0.053053
0.446589
0.890411
1.238851
1.480877
1.656719
1.780328
1.884146
1.956818
1.963307
1.840996
1.555821
1.166503
0.772967
0.481952
0.339526
0.402142
0.583823
0.783024
0.952053
1.111025
1.286218
1.460762
1.602214
1.706357
1.784221
1.853649
1.926646
2.008403
2.096324
2.152775
2.180352
2.191707
2.18165
2.139798
2.050904
1.916913
1.743342
1.546737
1.33618
1.106483
0.917015
0.812223
0.787566
0.841098
0.98839
1.19343
1.423777
1.6817
1.925673
2.143367
2.322453
2.448658
2.505433
2.493429
2.436978
2.335755
2.205333
2.066152
1.903612
1.702139
1.455571
1.182724
0.904037
0.670122
0.512773
0.434585
0.466704
0.584148
0.74539
0.908255
1.052303
1.191159
1.29076
1.375112
1.472442
1.560363
1.560687
1.450056
1.252153
0.987741
0.700943
0.428745
0.255499
0.181204
0.213323
0.273667
0.33174
0.434585
0.597774
0.821632
1.094803
1.366677
1.580478
1.684945
1.727445
1.764106
1.819584
1.866626
1.869222
1.817962
1.757942
1.705384
1.670345
1.637578
1.606432
1.559389
1.504885
1.444541
1.408529
1.386792
1.367001
1.380628
1.401067
1.403987
1.36473
1.274863
1.148334
0.97087
0.737928
0.468975
0.221109
0.089714
0.037805
0.01769
0.00958
0.072195
0.395653
0.766478
1.165854
1.546088
1.900367
2.202089
2.433409
2.589137
2.689711
2.728643
2.683871
2.59011
2.453524
2.263731
2.068748
1.909127
1.799145
1.74464
1.758915
1.817962
1.89615
2.002239
2.096649
2.160562
2.197223
2.216364
2.192032
2.09308
1.932162
1.701491
1.43643
1.147037
0.860239
0.618862
0.432314
0.307083
0.215594
0.134161
0.068626
0.03229
0.017041
0.045916
0.241224
0.535808
0.867052
1.218412
1.510725
1.685918
1.749506
1.762159
1.757942
1.730041
1.645039
1.506183
1.332612
1.120758
0.905011
0.733062
0.632813
0.611725
0.619186
0.673691
0.751555
0.847911
0.976386
1.123353
1.274538
1.424426
1.581126
1.736854
1.877008
2.009376
2.132012
2.241345
2.335106
2.430165
2.491807
2.484021
2.425298
2.266651
1.995101
1.671643
1.372517
1.146063
1.003314
0.978657
1.075662
1.237553
1.441296
1.666452
1.888688
2.074263
2.193005
2.193005
2.082049
1.898096
1.662559
1.403338
1.083448
0.714569
0.368076
0.149734
0.061164
0.027099
0.013148
0.085821
0.397924
0.726249
1.046138
1.332287
1.566203
1.754049
1.86468
1.861111
1.760537
1.620058
1.451678
1.282649
1.118487
0.972492
0.845315
0.701268
0.560789
0.507906
0.531914
0.605236
0.702241
0.819036
0.936481
1.023753
1.070471
1.095452
1.125949
1.157743
1.187591
1.244691
1.320608
1.428643
1.589562
1.765079
1.916913
2.022354
2.069072
2.045064
1.97596
1.865978
1.717388
1.541546
1.362135
1.210625
1.094803
1.030566
1.011424
1.03381
1.122704
1.275187
1.46498
1.648933
1.795576
1.901665
1.960387
1.988613
1.985044
1.949681
1.908803
1.845214
1.714792
1.51332
1.286542
1.054249
0.867052
0.79957
0.835582
0.923179
1.00526
1.03381
0.963084
0.843369
0.711974
0.584148
0.521857
0.546189
0.600045
0.592259
0.577659
0.60848
0.663958
0.752852
0.908255
1.1107
1.315092
1.517213
1.723552
1.879279
1.946437
1.95325
1.905883
1.804011
1.660612
1.489312
1.308604
1.208354
1.24534
1.366677
1.556145
1.804011
2.073938
2.306556
2.465528
2.531063
2.463581
2.303636
2.047659
1.644715
1.185969
0.771345
0.444967
0.223704
0.142921
0.222731
0.430367
0.749608
1.114918
1.471468
1.769946
1.988288
2.111248
2.148233
2.081725
1.877657
1.565554
1.17364
0.766478
0.360939
0.141623
0.05792
0.025477
0.012175
0.006984
0.005038
0.281453
0.704512
1.101941
1.428319
1.699868
1.913345
2.015216
2.03306
1.931513
1.666128
1.244366
0.79957
0.409279
0.164658
0.065706
0.029045
0.020935
0.273018
0.592583
0.923828
1.168125
1.28784
1.342345
1.391658
1.459464
1.537977
1.594753
1.648933
1.691433
1.660612
1.59313
1.523378
1.410151
1.276161
1.158067
1.060413
0.987092
0.949133
0.971844
1.043219
1.154174
1.286218
1.439674
1.589237
1.727445
1.868573
1.987315
2.07848
2.164131
2.23583
2.284495
2.302014
2.289037
2.238101
2.164131
2.082698
1.982449
1.857542
1.707655
1.575287
1.479579
1.42767
1.412746
1.425075
1.48769
1.591833
1.712521
1.82153
1.899718
1.936704
1.916589
1.862084
1.784545
1.666128
1.548034
1.439674
1.316714
1.173316
0.983199
0.6685
0.296701
0.116642
0.048187
0.021259
0.010877
0.006984
0.004713
0.044618
0.395978
0.774589
1.085395
1.294653
1.357917
1.27908
1.174289
1.125949
1.081502
1.056845
1.117838
1.280703
1.521106
1.780003
1.998346
2.088538
2.086916
2.059339
2.004834
1.95033
1.88155
1.819908
1.780976
1.749831
1.665803
1.548359
1.472766
1.432537
1.426372
1.445514
1.476984
1.498721
1.460438
1.358891
1.199595
0.983199
0.759016
0.588365
0.516017
0.571495
0.768101
1.061062
1.388089
1.741071
2.073614
2.346137
2.550529
2.687115
2.746162
2.713719
2.601141
2.420432
2.197547
1.954547
1.730689
1.554199
1.460113
1.474388
1.55355
1.634009
1.65315
1.508129
1.230091
0.896575
0.571819
0.327522
0.218189
0.238304
0.309354
0.421932
0.561113
0.716516
0.862186
0.96276
0.929343
0.738253
0.466704
0.219487
0.088416
0.036832
0.017366
0.182826
0.48617
0.797948
1.069498
1.31055
1.53603
1.733934
1.871817
1.9101
1.905234
1.875062
1.799145
1.684945
1.561012
1.455571
1.363757
1.296924
1.255397
1.226198
1.225549
1.258966
1.335532
1.45038
1.583397
1.718037
1.853974
2.009052
2.134932
2.103462
1.876359
1.547385
1.144441
0.73728
0.396951
0.181204
0.082252
0.058893
0.127024
0.278209
0.494929
0.761936
1.055871
1.376734
1.714792
2.02722
2.294552
2.509975
2.656619
2.706257
2.680302
2.596599
2.441844
2.234532
1.984395
1.67067
1.31347
0.930641
0.546189
0.243495
0.099123
0.042672
0.021908
0.295079
0.752528
1.259939
1.748858
2.132012
2.350679
2.413619
2.348408
2.142394
1.8105
1.349482
0.815792
0.346664
0.135783
0.056298
0.025152
0.012499
0.007309
0.096203
0.467353
0.866079
1.248259
1.577882
1.857867
2.086267
2.222204
2.274113
2.238425
2.120981
1.953574
1.734907
1.488014
1.244042
1.073715
1.00818
1.051654
1.1824
1.347211
1.518511
1.655097
1.750804
1.79882
1.800767
1.791358
1.789736
1.800767
1.816664
1.825424
1.772217
1.660612
1.524026
1.360513
1.183373
1.035757
0.933561
0.851804
0.770047
0.712298
0.667202
0.603289
0.50888
0.413172
0.32882
0.310328
0.435234
0.662985
0.934534
1.195377
1.37349
1.451029
1.466602
1.42767
1.324176
1.207705
1.075013
0.921557
0.777185
0.644168
0.53451
0.484547
0.545541
0.734684
1.026348
1.364406
1.698246
1.999319
2.238425
2.409401
2.498296
2.487914
2.403561
2.229666
1.976284
1.714468
1.466602
1.237553
1.067227
1.024402
1.091559
1.2249
1.423128
1.655097
1.880253
2.059988
2.187165
2.262433
2.280926
2.25562
2.153424
1.95909
1.715117
1.456545
1.222305
1.045814
0.952053
0.918637
0.95692
1.069173
1.21679
1.381601
1.552252
1.700517
1.798171
1.866626
1.928917
1.959738
1.963956
1.937353
1.873764
1.743667
1.55647
1.360188
1.097399
0.771994
0.451455
0.187368
0.07479
0.031965
0.015419
0.008606
0.006011
0.004713
0.218838
0.715543
1.175587
1.539924
1.774812
1.901341
1.976284
2.04474
2.143042
2.198845
2.160237
2.022678
1.814717
1.555496
1.279405
1.100319
1.069173
1.129842
1.24534
1.416964
1.616165
1.787465
1.945788
2.106706
2.259838
2.3961
2.448333
2.331538
2.091782
1.746262
1.287516
0.789189
0.356072
0.141299
0.058893
0.026774
0.013797
0.008606
0.028072
0.421932
0.889114
1.346238
1.789412
2.192032
2.500242
2.685493
2.763357
2.727669
2.606007
2.425947
2.191058
1.945788
1.737503
1.578531
1.474713
1.471144
1.552252
1.700193
1.906532
2.115141
2.308503
2.466826
2.579079
2.625149
2.59887
2.513544
2.372416
2.199169
2.0243
1.8676
1.732636
1.615516
1.483797
1.29076
1.080528
0.849533
0.564358
0.283724
0.115344
0.046889
0.022232
0.011851
0.007633
0.005686
0.005362
0.04332
0.407982
0.81417
1.204461
1.586317
1.919184
2.187814
2.374038
2.451577
2.409726
2.281575
2.092755
1.826072
1.505858
1.200892
0.983848
0.869323
0.867377
0.982225
1.174938
1.40788
1.645364
1.898421
2.177757
2.447035
2.677382
2.846412
2.948932
2.973265
2.900267
2.747135
2.520681
2.235506
1.939299
1.648284
1.372517
1.144766
1.005585
0.950107
0.983523
1.124975
1.333261
1.562309
1.800442
2.011323
2.107679
2.071343
1.89907
1.619409
1.315741
1.026997
0.771345
0.549434
0.402142
0.385596
0.452753
0.595827
0.816116
1.084421
1.361486
1.635631
1.903287
2.110924
2.253349
2.325049
2.326671
2.28709
2.225448
2.144989
1.999319
1.784545
1.500667
1.158392
0.858293
0.664931
0.603614
0.678233
0.862186
1.11654
1.391983
1.638226
1.802713
1.864355
1.84197
1.755346
1.585993
1.335532
1.067227
0.850831
0.713921
0.696401
0.792433
0.918637
1.015966
1.073066
1.079231
1.024077
0.903713
0.741822
0.584148
0.468326
0.404088
0.407982
0.495902
0.660065
0.876461
1.133411
1.416315
1.713495
2.000941
2.232261
2.379878
2.42465
2.394153
2.292606
2.116763
1.937353
1.799469
1.71901
1.698246
1.748858
1.850729
1.977582
2.12747
2.263731
2.377931
2.465204
2.514517
2.51322
2.467799
2.392206
2.280926
2.132336
1.95617
1.779679
1.622978
1.498721
1.43059
1.374139
1.323528
1.305359
1.294978
1.256046
1.203812
1.164232
1.121082
1.056196
0.983523
0.888789
0.787242
0.700943
0.668825
0.69121
0.76583
0.901766
1.059116
1.235607
1.405933
1.496125
1.451678
1.281676
1.019211
0.679206
0.397924
0.237006
0.142597
0.107882
0.16628
0.302866
0.465081
0.664607
0.926099
1.25053
1.61065
1.950979
2.240048
2.473314
2.62742
2.629042
2.407779
2.043117
1.596699
1.117189
0.636057
0.265556
0.10626
0.044943
0.020935
0.092958
0.437829
0.854399
1.282
1.684296
2.047011
2.339648
2.53301
2.621255
2.602114
2.484994
2.325373
2.154073
1.989586
1.821206
1.619409
1.396525
1.168125
1.004611
0.947511
0.978008
1.067551
1.206083
1.410151
1.611299
1.788438
1.938975
2.011323
2.016838
1.977907
1.913993
1.848783
1.831263
1.877008
1.957143
2.056744
2.127145
2.172241
2.171268
2.091458
1.863382
1.543817
1.220683
0.920908
0.662336
0.469624
0.347313
0.244792
0.174715
0.232788
0.345691
0.437829
0.538403
0.685046
0.836231
0.991958
1.167476
1.306008
1.370246
1.37641
1.336829
1.291084
1.267725
1.259615
1.23658
1.204461
1.175587
1.107132
1.01694
0.933885
0.855697
0.792433
0.776211
0.754474
0.635408
0.49428
0.396302
0.321358
0.291835
0.376187
0.559491
0.795028
1.075013
1.386467
1.695002
2.020407
2.323427
2.568049
2.725074
2.797422
2.794502
2.715016
2.560262
2.316938
2.032411
1.752102
1.511049
1.326772
1.214194
1.194079
1.240473
1.352402
1.525
1.710899
1.873115
2.000292
2.101191
2.147909
2.138176
2.077183
1.982773
1.922104
1.893879
1.864355
1.795576
1.698571
1.608703
1.52208
1.474064
1.484121
1.558741
1.712846
1.839374
1.829966
1.622978
1.239175
0.67434
0.26069
0.104314
0.044294
0.020935
0.011526
0.006984
0.004389
0.244792
0.786918
1.326772
1.802389
2.183272
2.45028
2.581026
2.562858
2.443467
2.25854
2.034682
1.819908
1.651204
1.549332
1.511698
1.554199
1.647959
1.77611
1.93865
2.115141
2.27606
2.400642
2.466177
2.445089
2.346786
2.18749
1.94449
1.683971
1.445514
1.246637
1.099021
1.021806
1.025375
1.074688
1.160987
1.291084
1.461087
1.637578
1.781625
1.889986
1.944166
1.977258
1.971093
1.845538
1.605783
1.27908
0.899171
0.510826
0.219811
0.090363
0.039427
0.095229
0.337904
0.641248
0.942969
1.175587
1.324825
1.398471
1.391983
1.277458
1.100967
0.927397
0.800544
0.74539
0.678882
0.638977
0.647412
0.701592
0.835582
1.053925
1.361486
1.675212
1.936055
2.131038
2.27314
2.348732
2.331862
2.252052
2.167699
2.10995
2.076534
2.061934
2.069721
2.093404
2.120657
2.129741
2.096649
2.035331
1.965254
1.866951
1.725823
1.577882
1.45622
1.366028
1.332612
1.343642
1.386143
1.444865
1.535381
1.651528
1.779679
1.927944
2.068423
2.194627
2.29001
2.340297
2.334457
2.264056
2.117737
1.897447
1.623951
1.342345
1.086368
0.874514
0.734684
0.696401
0.735009
0.831365
0.997474
1.19343
1.389063
1.552576
1.619409
1.555172
1.386143
1.191484
0.992283
0.803139
0.612049
0.489738
0.44302
0.463784
0.589014
0.80541
1.111025
1.47601
1.846512
2.176783
2.427245
2.577457
2.586866
2.462608
2.228044
1.89031
1.486068
1.076959
0.746364
0.515044
0.399222
0.423554
0.57993
0.85959
1.179804
1.492557
1.782274
2.040522
2.215391
2.278006
2.259189
2.181974
2.05285
1.896474
1.746587
1.628493
1.56166
1.562958
1.594104
1.646013
1.719983
1.750804
1.728418
1.68462
1.648284
1.61065
1.586966
1.593455
1.556145
1.435457
1.253126
1.063982
0.903064
0.799246
0.77102
0.80541
0.894953
1.035432
1.215167
1.396849
1.561985
1.72193
1.833534
1.884146
1.883172
1.819908
1.73588
1.647635
1.579829
1.553225
1.596375
1.688838
1.778057
1.882199
1.993155
2.112546
2.221879
2.301041
2.321805
2.251403
2.078805
1.779354
1.338451
0.828445
0.369374
0.145516
0.060515
0.027099
0.013797
0.008282
0.065706
0.417066
0.774914
1.077608
1.320932
1.465629
1.515916
1.491259
1.404311
1.339425
1.298546
1.271618
1.265779
1.307306
1.360513
1.394578
1.450705
1.562634
1.699868
1.784545
1.833534
1.865329
1.850729
1.807255
1.760213
1.70733
1.674238
1.666452
1.681376
1.708953
1.76443
1.855596
1.967849
2.100542
2.206307
2.249132
2.225448
2.152775
2.011647
1.803687
1.583722
1.375437
1.175587
0.991958
0.850506
0.792433
0.811574
0.912473
1.055223
1.224251
1.426697
1.616814
1.760213
1.859813
1.913993
1.915291
1.888039
1.853649
1.819259
1.77319
1.700193
1.635631
1.571718
1.511049
1.468873
1.430914
1.416315
1.444541
1.494828
1.549332
1.591508
1.599943
1.547385
1.476659
1.387441
1.23658
1.063658
0.875487
0.710027
0.565655
0.468975
0.413172
0.405062
0.472868
0.62308
0.821632
1.044192
1.276161
1.488014
1.655746
1.766377
1.795251
1.737503
1.631089
1.534408
1.479904
1.460762
1.512996
1.612921
1.711872
1.848458
2.01327
2.148558
2.2102
2.197223
2.092431
1.931837
1.770595
1.606756
1.461411
1.348833
1.300493
1.327745
1.41891
1.564256
1.74172
1.95033
2.17289
2.368198
2.508353
2.574537
2.532685
2.39026
2.213444
2.026247
1.822828
1.614867
1.404635
1.213545
1.050681
0.946862
0.90274
0.900144
0.946538
0.993905
1.068849
1.1824
1.293031
1.337478
1.258641
1.094154
0.856346
0.537105
0.23214
0.09231
0.038778
0.01769
0.008931
0.115669
0.438803
0.740848
0.977035
1.15677
1.298871
1.394254
1.430266
1.384196
1.21095
0.915393
0.575713
0.286969
0.130917
0.149734
0.360939
0.678882
1.026348
1.41372
1.825424
2.187165
2.441196
2.591083
2.672516
2.672191
2.586217
2.398046
2.109302
1.77903
1.457193
1.19635
1.027321
0.992607
1.080853
1.25637
1.482175
1.685918
1.826072
1.906532
1.94449
1.929242
1.859164
1.755995
1.610001
1.416964
1.216465
1.041272
0.925125
0.903713
0.998123
1.178507
1.414368
1.691758
1.957792
2.19041
2.374038
2.488238
2.47591
2.310125
2.01619
1.586317
1.075662
0.599072
0.251281
0.101394
0.042996
0.019961
0.044943
0.414795
0.857644
1.285245
1.6817
2.037278
2.31856
2.476234
2.454822
2.231288
1.862084
1.434483
0.966004
0.500769
0.200994
0.081279
0.034885
0.016717
0.00958
0.244144
0.716516
1.143144
1.509751
1.823801
2.051553
2.164455
2.160237
2.094053
2.026896
1.968174
1.861435
1.657692
1.365704
1.007856
0.686668
0.461188
0.322332
0.273342
0.295728
0.370023
0.48325
0.651305
0.848884
1.006558
1.13114
1.258317
1.41891
1.602214
1.78487
1.973689
2.145962
2.302663
2.431787
2.488238
2.434707
2.298445
2.119034
1.909776
1.714143
1.55063
1.406907
1.303088
1.261561
1.291733
1.37641
1.517862
1.699544
1.888688
2.077183
2.237452
2.307205
2.223826
2.042144
1.79882
1.496125
1.104861
0.619835
0.245766
0.098798
0.041698
0.019961
0.010877
0.00666
0.004389
0.003415
0.258419
0.804112
1.326447
1.774163
2.113844
2.314667
2.383122
2.320831
2.12455
1.875062
1.619734
1.37349
1.139899
0.968275
0.901766
0.912148
1.019211
1.220034
1.468549
1.741396
2.006781
2.191707
2.242319
2.154722
1.956818
1.687864
1.371868
1.087017
0.900144
0.788864
0.719111
0.710352
0.775238
0.932587
1.149957
1.402364
1.656395
1.880577
2.012621
1.997372
1.877982
1.705059
1.50456
1.328394
1.205759
1.109078
1.029268
0.990336
0.970221
0.990012
1.054898
1.145415
1.265454
1.401067
1.560038
1.704735
1.807904
1.866951
1.886092
1.878955
1.818286
1.658017
1.368624
1.020833
0.695428
0.397924
0.211376
0.189639
0.295728
0.474166
0.730791
1.018562
1.270645
1.488014
1.664181
1.744316
1.739125
1.680727
1.612596
1.587939
1.610325
1.65023
1.701815
1.771892
1.812446
1.785194
1.714792
1.636604
1.561985
1.487041
1.426048
1.360188
1.292707
1.252153
1.261561
1.315417
1.392632
1.503912
1.620383
1.699544
1.733285
1.701491
1.610974
1.516889
1.403338
1.197972
0.893007
0.536781
0.225002
0.090039
0.037805
0.018015
0.009255
0.018664
0.388516
0.824552
1.19635
1.497423
1.755022
1.96428
2.101191
2.151153
2.104111
2.01035
1.853974
1.626222
1.372517
1.088963
0.822281
0.567926
0.389813
0.332713
0.346988
0.42907
0.570522
0.731115
0.885869
1.030566
1.151903
1.253775
1.348833
1.416639
1.43935
1.441296
1.442594
1.422479
1.382899
1.378032
1.394254
1.424101
1.444865
1.412746
1.359539
1.286542
1.210301
1.138926
1.072742
1.021482
0.974439
0.948809
0.955622
0.990661
1.052627
1.154499
1.314443
1.497747
1.710899
1.949357
2.155371
2.300716
2.392855
2.424001
2.368198
2.286766
2.192356
2.058041
1.913669
1.778381
1.668399
1.599295
1.565229
1.501316
1.394578
1.278107
1.107132
0.917015
0.742146
0.579606
0.413172
0.275938
0.188666
0.116318
0.077386
0.111451
0.220136
0.376187
0.584797
0.868999
1.19635
1.527595
1.846512
2.091133
2.201116
2.198196
2.096
1.900367
1.65315
1.411124
1.177533
0.944591
0.748635
0.633137
0.621782
0.719436
0.921232
1.175262
1.472442
1.802713
2.125199
2.404859
2.617687
2.744215
2.725723
2.552476
2.219284
1.71317
1.148659
0.643194
0.270423
0.108531
0.045916
0.020935
0.011202
0.090687
0.509204
0.991958
1.455571
1.854298
2.162184
2.357168
2.45839
2.472341
2.409401
2.305258
2.181325
2.056419
1.933459
1.823153
1.735231
1.667425
1.641795
1.612596
1.540572
1.453949
1.377059
1.259615
1.113296
0.974115
0.848884
0.761612
0.718463
0.727547
0.776211
0.879705
1.05652
1.295951
1.578206
1.869546
2.127794
2.303312
2.358465
2.267624
2.0243
1.666128
1.214519
0.711649
0.295728
0.117615
0.04916
0.022881
0.011526
0.021908
0.331416
0.69413
1.046787
1.374788
1.656719
1.896474
2.096
2.198196
2.21604
2.163482
2.033709
1.840996
1.595077
1.334234
1.116216
0.97379
0.890411
0.843693
0.847911
0.889114
0.978332
1.109403
1.246962
1.358566
1.448758
1.528893
1.574638
1.569122
1.510725
1.422155
1.364406
1.352726
1.381925
1.436105
1.480877
1.429941
1.294653
1.14217
0.993256
0.858617
0.738577
0.675313
0.670122
0.65974
0.640599
0.628271
0.63119
0.686344
0.823903
1.014993
1.234958
1.470171
1.702788
1.936704
2.136878
2.266002
2.252376
2.020083
1.641471
1.194079
0.730791
0.325251
0.12897
0.053702
0.023855
0.012175
0.112749
0.510826
0.970221
1.403987
1.767675
2.036953
2.206956
2.277682
2.237777
2.09892
1.898745
1.685269
1.483797
1.308604
1.184022
1.140873
1.178182
1.267401
1.398471
1.549656
1.693704
1.827695
1.936379
1.995101
1.962983
1.872791
1.728743
1.517538
1.315092
1.154174
1.030566
0.958218
0.966328
1.051654
1.14509
1.205759
1.218412
1.195377
1.155796
1.126922
1.122055
1.137304
1.194728
1.280703
1.370246
1.463033
1.549981
1.606756
1.591833
1.494503
1.330989
1.137628
1.002989
0.938103
0.881327
0.854075
0.893656
0.965031
1.040623
1.144766
1.258641
1.360513
1.438376
1.504885
1.575935
1.669047
1.795251
1.912371
2.01619
2.127794
2.245563
2.330564
2.355221
2.317911
2.177108
1.90718
1.511374
1.034459
0.535808
0.210078
0.084848
0.036832
0.01769
0.00958
0.006011
0.004064
0.003415
0.095554
0.597774
1.15677
1.68462
2.095351
2.351652
2.406481
2.204685
1.863058
1.483472
1.160338
0.920908
0.772643
0.711325
0.73144
0.832014
0.945889
1.049707
1.160987
1.290111
1.417288
1.538301
1.664181
1.747235
1.797847
1.835481
1.851703
1.85884
1.863707
1.851703
1.7959
1.747235
1.720308
1.709277
1.73588
1.778057
1.77903
1.693055
1.581775
1.458167
1.301142
1.185969
1.140224
1.143144
1.181102
1.248584
1.330989
1.401716
1.486717
1.595077
1.698246
1.783896
1.845538
1.872791
1.853649
1.811473
1.752102
1.676185
1.608054
1.560687
1.527595
1.492557
1.474388
1.449407
1.420857
1.401067
1.371219
1.370246
1.384521
1.341047
1.237553
1.124651
1.015642
0.886518
0.746364
0.633461
0.580579
0.574415
0.615618
0.73144
0.905011
1.127895
1.345913
1.521106
1.582424
1.487041
1.298546
1.070146
0.875487
0.768425
0.728844
0.783998
0.929992
1.103887
1.268699
1.463033
1.697597
1.949681
2.223502
2.479803
2.675111
2.692955
2.397397
1.877657
1.232362
0.569873
0.221433
0.090363
0.039103
0.018988
0.010553
0.00666
0.005038
0.004064
0.198723
0.724627
1.26805
1.765728
2.195925
2.510624
2.67284
2.715341
2.691008
2.604061
2.47007
2.310774
2.135256
1.965254
1.836779
1.773514
1.771892
1.828992
1.933784
2.03598
2.106382
2.142069
2.146936
2.121306
2.050579
1.874088
1.573016
1.217763
0.860564
0.559491
0.366454
0.31195
0.391436
0.542296
0.74831
0.955946
1.146712
1.329692
1.49061
1.61357
1.682349
1.737503
1.778381
1.787141
1.762484
1.696624
1.570096
1.435457
1.341371
1.272916
1.199595
1.105834
0.998123
0.866403
0.709054
0.555922
0.46281
0.404088
0.376512
0.41155
0.540674
0.740848
0.983523
1.24242
1.495152
1.752751
1.991857
2.217337
2.415565
2.514517
2.433409
2.148882
1.664505
1.062036
0.485521
0.189639
0.07771
0.034236
0.017366
0.00958
0.006335
0.004064
0.163685
0.611725
1.080204
1.501316
1.793629
1.958765
2.022354
1.973365
1.814393
1.568798
1.223278
0.843369
0.532888
0.355748
0.329794
0.46573
0.759665
1.137953
1.532786
1.906856
2.192681
2.377931
2.479479
2.442818
2.265353
2.009052
1.722254
1.384845
1.046463
0.760963
0.544892
0.416092
0.397924
0.517639
0.716192
0.966328
1.260588
1.549656
1.800118
2.002563
2.156344
2.236479
2.26146
2.24167
2.12747
1.944166
1.698246
1.352078
0.978332
0.672069
0.458593
0.342122
0.348935
0.438478
0.586743
0.78562
1.029592
1.264481
1.434808
1.568798
1.65899
1.68754
1.658341
1.584046
1.501641
1.43351
1.401391
1.39328
1.392632
1.434808
1.472117
1.484446
1.494179
1.518835
1.547385
1.57918
1.617138
1.613894
1.558416
1.438701
1.24534
1.010451
0.763234
0.534185
0.335958
0.250957
0.356072
0.582201
0.813521
1.038028
1.219061
1.266752
1.200892
1.055547
0.87419
0.703214
0.584148
0.553002
0.597125
0.686344
0.815468
0.984496
1.187915
1.384196
1.551279
1.668074
1.720632
1.710575
1.651853
1.565554
1.438376
1.27097
1.108429
0.982225
0.911824
0.912148
0.997474
1.139575
1.335532
1.584371
1.83029
2.051228
2.226746
2.327969
2.334457
2.231288
2.07329
1.876684
1.683971
1.520458
1.387765
1.269672
1.170071
1.097074
1.029592
0.997149
1.024726
1.102914
1.20803
1.324825
1.373814
1.25637
1.020833
0.731115
0.398249
0.16044
0.065057
0.028397
0.013797
0.007309
0.004713
0.00374
0.002766
0.077386
0.33758
0.60264
0.900144
1.196675
1.428643
1.588588
1.669047
1.672616
1.620058
1.556794
1.549981
1.602863
1.691433
1.805958
1.931837
2.04474
2.036629
1.859164
1.593779
1.300493
1.004287
0.711001
0.490387
0.373592
0.373592
0.467353
0.633137
0.871594
1.158392
1.46206
1.728743
1.951303
2.115466
2.184245
2.149207
2.044415
1.909776
1.729392
1.524351
1.302764
1.063333
0.846613
0.664282
0.50304
0.387542
0.362561
0.433612
0.571495
0.794055
1.10778
1.472766
1.830614
2.154398
2.421405
2.582972
2.657267
2.647535
2.565778
2.450929
2.335431
2.21604
2.083996
1.974013
1.803362
1.508129
1.171045
0.800219
0.391111
0.153952
0.062786
0.028397
0.01477
0.008931
0.006335
0.004713
0.004389
0.00374
0.143894
0.550083
0.982874
1.349807
1.651528
1.9247
2.165104
2.346461
2.46715
2.521655
2.480776
2.378256
2.253349
2.10703
1.973365
1.869871
1.799469
1.772217
1.804335
1.89031
2.004834
2.143691
2.245887
2.300392
2.299743
2.199818
1.937353
1.550305
1.139899
0.738902
0.384298
0.167902
0.076737
0.106585
0.238304
0.462162
0.759016
1.101616
1.456869
1.749831
1.962658
2.099569
2.16705
2.167699
2.03598
1.712846
1.243717
0.713596
0.285346
0.113722
0.047862
0.021908
0.011202
0.00666
0.075115
0.572144
1.104212
1.574638
1.980502
2.308827
2.515815
2.611523
2.619633
2.542743
2.423676
2.290335
2.174837
2.077507
2.008728
1.974662
1.961685
1.961361
1.943841
1.923402
1.898745
1.862733
1.804984
1.711548
1.604485
1.486068
1.371868
1.294004
1.23366
1.178182
1.149308
1.17948
1.226847
1.271618
1.356944
1.486068
1.63336
1.779354
1.908154
1.949681
1.836454
1.612596
1.29952
0.945565
0.630542
0.393058
0.253877
0.239277
0.36905
0.582201
0.847586
1.160014
1.473739
1.748209
1.969147
2.111248
2.154398
2.097622
1.901989
1.452003
0.910526
0.472868
0.196128
0.079657
0.033912
0.016393
0.062137
0.413821
0.829094
1.257343
1.63336
1.926322
2.140771
2.270869
2.338026
2.352626
2.298121
2.149207
1.89323
1.606108
1.311524
0.99942
0.616591
0.258094
0.102367
0.042672
0.019637
0.010553
0.00666
0.004713
0.021259
0.331416
0.673042
0.992932
1.294978
1.580802
1.846187
2.093404
2.327644
2.531063
2.707879
2.867175
2.978131
3.010899
2.97586
2.888263
2.740971
2.560262
2.364954
2.143691
1.923402
1.71025
1.524026
1.391983
1.324825
1.327421
1.368624
1.472117
1.624276
1.802064
1.97596
2.055446
1.986342
1.803362
1.559065
1.21679
0.779131
0.352504
0.139028
0.057595
0.025477
0.012824
0.007957
0.005362
0.00374
0.004389
0.314221
0.742146
1.16488
1.537653
1.805958
1.952276
1.9818
1.948383
1.908803
1.914318
1.94449
1.920158
1.8676
1.797522
1.712521
1.634009
1.57918
1.56458
1.587939
1.637253
1.682674
1.723552
1.746911
1.727445
1.679754
1.589886
1.443892
1.240149
1.020508
0.806059
0.589339
0.431989
0.383
0.432314
0.566953
0.750906
0.971519
1.193755
1.403013
1.576584
1.703762
1.799793
1.87052
1.921131
1.968498
2.045388
2.140123
2.225773
2.282224
2.255296
2.171268
2.054148
1.888039
1.64212
1.335856
1.026348
0.728844
0.48325
0.336607
0.31487
0.379756
0.525426
0.78854
1.10778
1.415342
1.700517
1.941895
2.099569
2.160886
2.103462
1.901989
1.551603
1.108429
0.666878
0.301244
0.120535
0.050134
0.022881
0.012175
0.123131
0.479681
0.875487
1.257668
1.59605
1.891608
2.142069
2.329915
2.412646
2.381824
2.242643
2.021705
1.751129
1.425724
1.061711
0.69997
0.361588
0.14649
0.059866
0.026774
0.095229
0.403115
0.778158
1.177533
1.543492
1.843592
2.075885
2.20144
2.21896
2.170619
2.09308
2.014892
1.982124
1.995426
1.991857
1.982773
2.006132
2.047984
2.091782
2.168348
2.263731
2.320182
2.336728
2.30461
2.208253
2.080103
1.932811
1.775461
1.63628
1.545763
1.509103
1.502938
1.54187
1.616814
1.662559
1.635631
1.522404
1.291409
0.938752
0.557544
0.24025
0.096203
0.040401
0.019313
0.010228
0.006335
0.005362
0.300595
0.755123
1.207057
1.593779
1.868573
1.976609
1.950979
1.843916
1.669696
1.471144
1.253775
1.037379
0.848235
0.648385
0.433612
0.273991
0.243819
0.33758
0.553002
0.881003
1.268699
1.646662
1.948383
2.164455
2.269895
2.242319
2.079454
1.82445
1.540572
1.247935
0.992607
0.841422
0.832338
0.923179
1.078582
1.300493
1.53895
1.760213
1.942219
2.07037
2.137203
2.122928
2.046686
1.882199
1.633035
1.355322
1.066253
0.795677
0.589014
0.463784
0.416092
0.480005
0.662011
0.877758
1.097074
1.298222
1.468873
1.608054
1.688513
1.70441
1.643417
1.531488
1.411124
1.321905
1.289787
1.321581
1.382899
1.356295
1.195053
0.940049
0.577984
0.237655
0.094256
0.039752
0.018664
0.00958
0.00666
0.004713
0.016393
0.310003
0.650981
0.994878
1.359539
1.747235
2.123577
2.471043
2.760437
2.966452
3.086492
3.110175
3.017388
2.803262
2.487914
2.057717
1.525973
0.98839
0.535483
0.233762
0.097176
0.042996
0.143245
0.422581
0.786918
1.175262
1.539599
1.853974
2.108977
2.286766
2.385718
2.409401
2.314667
2.138176
1.865653
1.487366
1.090261
0.692832
0.357046
0.160116
0.109504
0.190937
0.323954
0.48325
0.674015
0.87711
1.067551
1.255072
1.369597
1.397498
1.39328
1.342993
1.23366
1.061062
0.868999
0.715218
0.627622
0.625026
0.649034
0.690237
0.749608
0.810277
0.858941
0.891709
0.929668
0.946862
0.902091
0.861212
0.870621
0.909553
0.941996
0.991634
1.056196
1.111349
1.186942
1.29368
1.417288
1.537653
1.625574
1.671318
1.6963
1.714143
1.685918
1.603188
1.489637
1.388738
1.321257
1.2966
1.344616
1.455571
1.620707
1.839699
2.058366
2.197871
2.242643
2.200791
2.060961
1.857867
1.65023
1.43059
1.221007
1.038028
0.905984
0.836556
0.799246
0.754799
0.716516
0.688939
0.626
0.528995
0.422905
0.354775
0.288266
0.188341
0.123131
0.129619
0.154925
0.211052
0.31487
0.432314
0.529319
0.660389
0.856022
1.107132
1.382574
1.614218
1.769946
1.846187
1.874737
1.861111
1.815691
1.774812
1.737178
1.706681
1.679105
1.65023
1.591184
1.5104
1.449407
1.408853
1.394578
1.416639
1.449083
1.457518
1.458167
1.461411
1.454274
1.465304
1.480228
1.45622
1.427346
1.420533
1.439674
1.500992
1.595401
1.685269
1.737827
1.746911
1.690784
1.594428
1.494828
1.412746
1.3391
1.249233
1.198946
1.195053
1.184346
1.132113
1.060089
1.004936
0.916041
0.823903
0.736306
0.703539
0.780753
0.915068
1.082799
1.271294
1.478606
1.653799
1.734907
1.72777
1.63628
1.482824
1.319634
1.188888
1.087666
0.99942
0.933236
0.816441
0.631839
0.446264
0.316167
0.270423
0.303839
0.395653
0.527372
0.699646
0.887816
1.040623
1.183698
1.32807
1.475362
1.634982
1.816015
1.990884
2.123901
2.215066
2.26438
2.274762
2.225448
2.107679
1.932486
1.703437
1.44746
1.191484
0.945889
0.746688
0.62016
0.593232
0.666229
0.844342
1.081826
1.348184
1.626222
1.856893
2.025922
2.138176
2.191383
2.144665
1.98764
1.780976
1.561985
1.336505
1.113945
0.908904
0.774589
0.739551
0.798597
0.925774
1.104536
1.326772
1.554199
1.748533
1.910749
2.046362
2.103137
2.088538
2.033384
1.931188
1.794927
1.631089
1.408204
1.092857
0.671096
0.273342
0.107558
0.045267
0.02061
0.010228
0.00666
0.004713
0.262312
0.711325
1.142819
1.485095
1.682025
1.755346
1.756644
1.670994
1.529217
1.412422
1.341371
1.318012
1.346887
1.378681
1.391334
1.368948
1.291084
1.140873
0.933561
0.720734
0.538727
0.380405
0.313248
0.370672
0.509529
0.703863
0.942969
1.207705
1.474064
1.716739
1.894528
2.001915
2.033384
1.994453
1.88739
1.746262
1.617787
1.490934
1.384196
1.31639
1.283622
1.280378
1.332612
1.451354
1.614867
1.823153
2.049282
2.278655
2.477856
2.622878
2.703337
2.700741
2.632935
2.500242
2.283197
2.025922
1.764755
1.502289
1.251179
1.037703
0.85959
0.703863
0.626648
0.656821
0.733386
0.781078
0.818063
0.834285
0.803464
0.717814
0.586743
0.451455
0.346015
0.296053
0.321683
0.418363
0.555598
0.702241
0.874839
1.052952
1.202839
1.301791
1.311524
1.254099
1.141846
0.943294
0.681153
0.433287
0.260365
0.164009
0.162062
0.256148
0.421608
0.64871
0.903713
1.17948
1.472442
1.776434
2.053824
2.279304
2.456119
2.576159
2.64429
2.643966
2.569995
2.450929
2.272491
2.017487
1.722254
1.449407
1.244691
1.140224
1.136979
1.229442
1.381601
1.54187
1.686242
1.797847
1.862409
1.867924
1.789412
1.622329
1.417937
1.203488
1.003638
0.856346
0.764207
0.713596
0.744417
0.852777
1.003314
1.181102
1.378357
1.578531
1.751778
1.910425
2.013594
1.976609
1.803038
1.566851
1.304062
1.071769
0.900793
0.791784
0.720409
0.666229
0.616267
0.579281
0.591285
0.65163
0.731764
0.787891
0.823254
0.820334
0.773616
0.709378
0.662011
0.650007
0.679855
0.787566
0.951729
1.157743
1.406907
1.644391
1.832237
1.961361
2.004186
1.962983
1.818286
1.586317
1.306657
1.006233
0.746364
0.589663
0.558193
0.643194
0.820659
1.017264
1.198297
1.362135
1.491583
1.576909
1.623951
1.630116
1.593455
1.512347
1.37641
1.159365
0.874839
0.566953
0.300595
0.133512
0.058893
0.076088
0.202941
0.405062
0.65163
0.856995
1.017588
1.150281
1.239824
1.294004
1.330341
1.351104
1.369921
1.398796
1.452651
1.522404
1.610325
1.745938
1.915291
2.100217
2.308178
2.475261
2.559289
2.515491
2.337702
2.0814
1.790385
1.48477
1.173965
0.869972
0.617564
0.466704
0.417714
0.436856
0.520235
0.648385
0.804437
0.97379
1.161636
1.346238
1.508778
1.646986
1.741071
1.803038
1.836779
1.823153
1.77903
1.722254
1.670345
1.626222
1.602214
1.592157
1.610001
1.653799
1.710575
1.759564
1.760213
1.684945
1.572367
1.420857
1.243069
1.054898
0.849857
0.650332
0.432638
0.188666
0.07479
0.031965
0.014446
0.007309
0.004713
0.003415
0.011202
0.320385
0.636706
0.834285
0.936805
1.0111
1.055547
1.068524
1.080204
1.080853
1.081502
1.110052
1.171045
1.223603
1.29368
1.413071
1.569447
1.75048
1.92762
2.077832
2.149856
2.142718
2.025922
1.768648
1.411124
1.017913
0.677584
0.425176
0.264583
0.196777
0.215918
0.335309
0.55138
0.847586
1.172991
1.480877
1.749182
1.956494
2.078156
2.055121
1.875062
1.622329
1.349482
1.092857
0.886194
0.759665
0.70289
0.720409
0.813197
0.950107
1.098372
1.228794
1.308279
1.288489
1.211923
1.09967
0.924801
0.698997
0.434585
0.190937
0.076088
0.031965
0.01477
0.007309
0.024179
0.322007
0.692832
1.057169
1.360513
1.561336
1.598321
1.491908
1.323852
1.126922
0.942969
0.759016
0.538727
0.328171
0.161089
0.067004
0.028072
0.012824
0.006984
0.173093
0.465081
0.760963
1.045814
1.282974
1.488014
1.662883
1.800442
1.920807
2.026247
2.112221
2.183921
2.277357
2.37566
2.432111
2.471692
2.451902
2.370469
2.250429
2.114817
1.962334
1.783896
1.622005
1.48185
1.373814
1.31347
1.307955
1.359864
1.449407
1.59605
1.789087
2.006781
2.213769
2.349057
2.373065
2.263082
2.009052
1.591508
1.079879
0.549109
0.21462
0.086794
0.03813
0.018664
0.009904
0.00666
0.004389
0.056298
0.431989
0.854075
1.243393
1.613245
1.959738
2.236154
2.402913
2.454822
2.364305
2.156344
1.901665
1.631089
1.365055
1.144441
1.049707
1.072417
1.181751
1.372841
1.59313
1.80174
1.998021
2.182623
2.329266
2.400642
2.370145
2.242968
2.051553
1.817637
1.549008
1.246962
0.923503
0.571819
0.252579
0.10042
0.042023
0.019313
0.010228
0.00666
0.12897
0.451455
0.726573
0.947511
1.131788
1.314768
1.512022
1.731338
1.945463
2.132012
2.293579
2.41589
2.530739
2.641695
2.722154
2.747784
2.712745
2.614118
2.457093
2.223502
1.889661
1.488339
1.112647
0.824227
0.641248
0.56306
0.606858
0.758692
0.97671
1.256046
1.541546
1.789412
1.971093
2.087889
2.120981
2.073614
1.961685
1.780976
1.571718
1.370246
1.19635
1.065604
1.000718
1.024402
1.111998
1.256046
1.456545
1.621031
1.662883
1.591184
1.411124
1.157094
0.872568
0.565655
0.257121
0.102043
0.042672
0.019637
0.010228
0.006335
0.004389
0.013797
0.393707
0.875487
1.298546
1.610325
1.839374
1.988937
2.04474
2.013594
1.854947
1.535381
1.162934
0.82293
0.558193
0.407982
0.409604
0.526075
0.73436
1.047436
1.397174
1.71317
1.969471
2.181974
2.320182
2.356519
2.316614
2.206956
2.059339
1.884146
1.68462
1.481526
1.34494
1.315741
1.326123
1.360837
1.469522
1.609352
1.727445
1.812771
1.868897
1.871817
1.811473
1.703437
1.565229
1.437403
1.345264
1.292058
1.266103
1.223603
1.120758
0.97963
0.870621
0.78854
0.70873
0.630542
0.577984
0.5543
0.547163
0.560464
0.577984
0.594854
0.630542
0.712298
0.845315
1.00818
1.206408
1.414044
1.594753
1.738151
1.850405
1.936055
1.981475
1.970769
1.896474
1.78487
1.674563
1.583073
1.496774
1.419559
1.369921
1.374139
1.428319
1.524675
1.642444
1.739774
1.772217
1.646013
1.335532
0.931939
0.520559
0.209429
0.083874
0.036183
0.017041
0.009904
0.006335
0.113398
0.495254
0.885869
1.288813
1.682674
2.0814
2.463581
2.780552
3.008303
3.138725
3.169222
3.082598
2.89021
2.614118
2.308503
2.037278
1.829641
1.680727
1.559389
1.450705
1.318661
1.176236
1.07112
1.027321
1.028295
1.073715
1.159041
1.237229
1.301142
1.344616
1.323203
1.265779
1.209003
1.172342
1.150281
1.153525
1.200892
1.26221
1.294978
1.283622
1.221007
1.141521
1.101616
1.097399
1.051329
0.980603
0.91377
0.828445
0.748635
0.702241
0.707432
0.773291
0.908255
1.11362
1.352726
1.604485
1.848783
2.065503
2.221879
2.310774
2.343217
2.306232
2.222528
2.092107
1.926646
1.719983
1.447785
1.128869
0.825849
0.608156
0.487467
0.478383
0.580904
0.759665
1.005585
1.294978
1.565878
1.753075
1.838076
1.83321
1.709277
1.415991
0.961786
0.477085
0.187368
0.075115
0.03229
0.015744
0.086145
0.486818
0.892682
1.226522
1.504885
1.734258
1.904909
2.027545
2.095351
2.08724
2.042469
1.979529
1.909127
1.839699
1.780652
1.743342
1.705059
1.670021
1.606108
1.452003
1.179155
0.835907
0.48033
0.199696
0.079981
0.034885
0.016717
0.009255
0.006011
0.04332
0.368401
0.745715
1.126922
1.503912
1.879604
2.217662
2.487914
2.657267
2.725398
2.703337
2.602763
2.475261
2.324076
2.160237
2.02722
1.934433
1.879604
1.852351
1.837752
1.816988
1.826072
1.888039
1.942219
1.957792
1.930864
1.860787
1.689811
1.412746
1.103238
0.786593
0.508231
0.310003
0.192559
0.16336
0.202941
0.276911
0.347962
0.412524
0.404088
0.30319
0.148436
0.059542
0.024503
0.011851
0.00666
0.004389
0.004064
0.002766
0.002766
0.002118
0.001793
0.152005
0.526723
0.925125
1.320608
1.657692
1.917887
2.103462
2.242968
2.33316
2.364305
2.343866
2.279628
2.196249
2.094053
1.99867
1.920807
1.825099
1.733285
1.628169
1.528893
1.490934
1.509751
1.551279
1.602863
1.665803
1.719659
1.758591
1.783247
1.755671
1.695002
1.614218
1.522729
1.380628
1.188564
1.027646
0.912473
0.864781
0.883923
0.967626
1.111998
1.294004
1.482175
1.644391
1.768324
1.828992
1.813095
1.755671
1.676509
1.578206
1.454598
1.334883
1.205759
1.034783
0.827147
0.606534
0.429718
0.305137
0.2688
0.3259
0.451131
0.61432
0.778482
0.906308
0.983848
1.024726
1.020833
0.987416
0.945889
0.902415
0.882949
0.880678
0.869323
0.823903
0.75707
0.685695
0.601018
0.514395
0.47157
0.488765
0.561438
0.703863
0.908579
1.162934
1.449732
1.716414
1.89031
1.950005
1.906207
1.811473
1.713819
1.61065
1.512022
1.400093
1.291733
1.202839
1.136006
1.119784
1.148334
1.201866
1.273565
1.385494
1.505534
1.629467
1.777083
1.908803
1.986017
2.002239
1.960387
1.873115
1.752102
1.61357
1.443892
1.269996
1.131788
1.043219
1.014669
1.047112
1.131464
1.219709
1.335532
1.483148
1.615192
1.700517
1.742045
1.737178
1.679754
1.569122
1.432537
1.267401
1.087666
0.917664
0.808006
0.793731
0.852128
0.958866
1.100967
1.280703
1.467575
1.638226
1.772541
1.863707
1.850729
1.641146
1.310875
0.94524
0.576362
0.258419
0.103016
0.042996
0.020286
0.009904
0.006011
0.004064
0.003091
0.003091
0.002118
0.002442
0.002118
0.002766
0.002766
0.002442
0.095229
0.311625
0.552678
0.839476
1.157094
1.478606
1.807904
2.119683
2.409077
2.686466
2.923627
3.08195
3.150405
3.137103
3.023552
2.78185
2.384744
1.832237
1.25345
0.781727
0.393058
0.158818
0.065706
0.02937
0.01477
0.075439
0.401817
0.780753
1.129517
1.406582
1.581126
1.59021
1.473091
1.245988
0.857968
0.404088
0.157196
0.06376
0.027748
0.013148
0.006984
0.004064
0.003415
0.275938
0.7256
1.148983
1.495152
1.752751
1.906207
1.95617
1.889012
1.693704
1.44746
1.225549
1.031863
0.86543
0.811899
0.865106
1.00818
1.212247
1.425399
1.630764
1.816015
1.951628
2.011647
2.027869
2.013919
1.938326
1.795576
1.559065
1.257668
0.938752
0.660065
0.463135
0.330767
0.287293
0.336931
0.456646
0.608805
0.750257
0.796975
0.692832
0.516342
0.30611
0.126375
0.050782
0.022557
0.010877
0.006011
0.200994
0.619835
1.00234
1.351429
1.639849
1.82737
1.880253
1.845538
1.722579
1.51332
1.237553
0.917339
0.615942
0.327522
0.13481
0.055
0.023855
0.011526
0.00666
0.157196
0.49428
0.824876
1.117189
1.34494
1.490285
1.558741
1.588913
1.633035
1.689811
1.75048
1.794927
1.825424
1.860787
1.905558
1.952925
1.987315
2.040198
2.094702
2.134283
2.150829
2.144665
2.108004
2.034358
1.953574
1.874088
1.785518
1.682674
1.53603
1.339749
1.136655
0.978008
0.850506
0.76291
0.789189
0.856346
0.929668
0.997149
1.058142
1.084097
1.050681
1.0111
1.006233
1.021806
1.044192
1.051978
1.057169
1.065604
1.091883
1.124327
1.144766
1.149957
1.142495
1.117513
1.074688
1.01402
0.936156
0.811574
0.626
0.350557
0.141948
0.057271
0.024503
0.012499
0.00666
0.004389
0.105936
0.418039
0.744417
1.09383
1.457193
1.788763
2.05285
2.214418
2.264704
2.185867
1.986991
1.742045
1.488663
1.262859
1.099994
1.049707
1.095128
1.204461
1.370246
1.556794
1.755346
1.937028
2.06453
2.129741
2.137203
2.10184
2.010999
1.886092
1.737178
1.535057
1.25053
0.912797
0.593881
0.30903
0.129944
0.054676
0.037156
0.14357
0.305461
0.501418
0.708405
0.911824
1.089288
1.191159
1.217763
1.194728
1.155148
1.124002
1.150605
1.223278
1.274214
1.254748
1.240149
1.286867
1.34494
1.381276
1.395227
1.386792
1.370895
1.347211
1.318661
1.311848
1.314119
1.317688
1.322554
1.360513
1.444216
1.529866
1.612596
1.663856
1.657368
1.536679
1.334883
1.094479
0.744742
0.343744
0.135459
0.055649
0.025152
0.012499
0.007309
0.004713
0.107233
0.562735
1.070471
1.553874
1.971418
2.310125
2.542094
2.619633
2.528143
2.314667
2.024625
1.642768
1.162934
0.68829
0.339202
0.150707
0.067328
0.075764
0.199696
0.401168
0.668825
0.994878
1.333909
1.641146
1.909776
2.089836
2.139474
2.047984
1.840672
1.614543
1.430914
1.319634
1.278756
1.302764
1.386792
1.520782
1.696949
1.878306
2.027869
2.12455
2.179379
2.186516
2.145313
2.074587
1.958441
1.813095
1.673914
1.562309
1.473739
1.415991
1.393929
1.360837
1.342345
1.382574
1.437403
1.486068
1.526297
1.552252
1.536355
1.480877
1.384521
1.21387
0.990661
0.70873
0.405062
0.184448
0.078683
0.040725
0.116642
0.307732
0.570522
0.852453
1.11362
1.32223
1.439999
1.460438
1.441621
1.400093
1.298871
1.134708
0.903713
0.672069
0.456646
0.27464
0.164333
0.159143
0.245766
0.389489
0.592259
0.836231
1.097074
1.337478
1.555172
1.742693
1.829966
1.760537
1.583073
1.362459
1.089937
0.795677
0.587392
0.482601
0.490063
0.597125
0.738253
0.871919
0.998771
1.130815
1.267076
1.391009
1.507805
1.592157
1.640173
1.627196
1.549332
1.443892
1.399769
1.434483
1.501965
1.602214
1.726472
1.840672
1.933459
1.997048
2.017487
1.969471
1.88739
1.784221
1.644066
1.48769
1.348184
1.202839
1.005585
0.781727
0.598747
0.480979
0.465406
0.535159
0.666553
0.825525
0.988065
1.136655
1.273565
1.411773
1.493205
1.47893
1.341696
1.02505
0.606534
0.267178
0.105611
0.04332
0.018988
0.00958
0.005686
0.00374
0.003415
0.003415
0.154276
0.431665
0.720409
0.967626
1.172342
1.319959
1.402364
1.4679
1.535381
1.622005
1.695651
1.786167
1.892905
1.981151
2.052526
2.113195
2.151153
2.143367
2.110924
2.068423
1.993804
1.89907
1.801416
1.715441
1.63044
1.515267
1.347536
1.177858
1.065604
0.996825
0.955622
0.93421
0.947187
0.98547
1.007531
1.016615
1.02797
1.052952
1.089288
1.140873
1.200244
1.256046
1.307955
1.306333
1.231713
1.127895
1.020184
0.874839
0.653252
0.330442
0.128646
0.052405
0.022881
0.011526
0.006984
0.004713
0.00374
0.003091
0.222407
0.711325
1.178831
1.61065
2.005483
2.343866
2.588163
2.726696
2.753299
2.659539
2.488238
2.271193
2.026571
1.801416
1.612272
1.469846
1.371219
1.32223
1.314768
1.346238
1.420533
1.513645
1.599295
1.659314
1.701491
1.72193
1.721281
1.707655
1.6392
1.483472
1.25345
0.986443
0.754799
0.590961
0.519586
0.582526
0.755448
1.014993
1.283298
1.468549
1.514293
1.435457
1.252801
1.029268
0.826498
0.621782
0.431016
0.285671
0.207158
0.189639
0.237979
0.373916
0.540674
0.690886
0.796326
0.886518
0.911175
0.88814
0.853426
0.813197
0.772643
0.719111
0.662011
0.653576
0.685695
0.75415
0.862835
1.045814
1.284271
1.549332
1.828668
2.075236
2.256918
2.356843
2.359439
2.279628
2.150504
2.013594
1.870844
1.698895
1.51916
1.392307
1.330989
1.316066
1.347211
1.384521
1.428968
1.519484
1.63628
1.755671
1.856569
1.920158
1.918211
1.877657
1.782923
1.595077
1.37933
1.211599
1.088963
0.9965
0.97379
1.039325
1.092532
1.136655
1.194079
1.219385
1.177209
1.122704
1.086692
1.024726
0.94816
0.853102
0.712298
0.518288
0.25777
0.101718
0.041374
0.018664
0.008931
0.005362
0.003091
0.003091
0.00958
0.274965
0.578957
0.824227
0.978008
1.066578
1.097723
1.047761
0.949133
0.817414
0.6685
0.537105
0.488116
0.559816
0.758692
1.043867
1.360188
1.658017
1.9101
2.105084
2.23291
2.302339
2.320507
2.222528
1.998346
1.72485
1.460438
1.211599
0.987416
0.809952
0.668825
0.576686
0.530617
0.52575
0.541647
0.553327
0.566304
0.609778
0.707432
0.822605
0.892358
0.898198
0.84564
0.789513
0.764207
0.788864
0.847911
0.931939
1.056845
1.189862
1.277134
1.230091
1.043543
0.780753
0.512124
0.314545
0.193208
0.161089
0.244144
0.434585
0.6685
0.907606
1.157419
1.368624
1.521431
1.651204
1.769621
1.826072
