0.903064
0.787566
0.692508
0.611725
0.574415
0.580255
0.633461
0.714245
0.798273
0.897224
0.983199
1.041596
1.095128
1.11654
1.121407
1.051978
0.942645
0.826174
0.721382
0.636706
0.582526
0.587068
0.610751
0.64871
0.71684
0.783673
0.865106
0.93129
0.981901
1.030241
1.065604
1.071444
0.993905
0.90274
0.797299
0.709378
0.645465
0.626973
0.650332
0.689588
0.759341
0.850831
0.966653
1.061711
1.13925
1.18532
1.192782
1.184022
1.15969
1.043543
0.943618
0.840449
0.759016
0.705485
0.697699
0.709054
0.745066
0.812223
0.881652
0.97963
1.064307
1.124327
1.166827
1.194079
1.196675
1.126598
1.026997
0.933885
0.85148
0.766154
0.707432
0.69705
0.718138
0.763883
0.854724
0.941996
1.035757
1.120109
1.1824
1.214194
1.234633
1.21679
1.110052
0.997798
0.882301
0.791135
0.727222
0.697374
0.697374
0.724951
0.780753
0.849857
0.93421
1.003314
1.047436
1.097399
1.118162
1.131464
1.110052
1.00818
0.924801
0.812548
0.713272
0.655847
0.657794
0.691859
0.752203
0.830716
0.906308
1.000069
1.085719
1.146063
1.184022
1.192133
1.174289
1.086044
0.960813
0.836556
0.760639
0.699646
0.678233
0.677909
0.710352
0.741173
0.801841
0.863483
0.961462
1.04549
1.100967
1.11946
1.128544
1.117189
1.019535
0.937778
0.854399
0.794055
0.748635
0.722356
0.710676
0.710352
0.74539
0.81125
0.89398
0.961462
1.008829
1.058791
1.084421
1.104212
1.101292
1.003314
0.901118
0.797624
0.718138
0.676611
0.674664
0.678557
0.718138
0.794055
0.866079
0.952378
1.017913
1.05944
1.097399
1.123029
1.137304
1.0682
0.97379
0.873216
0.785295
0.725924
0.685046
0.69413
0.710352
0.717489
0.770047
0.830391
0.907931
0.989687
1.045814
1.078906
1.114594
1.114269
1.024402
0.930641
0.825849
0.750257
0.690886
0.657794
0.65163
0.652279
0.693481
0.753501
0.857319
0.968599
1.040948
1.103563
1.130815
1.137304
1.101616
0.987741
0.891709
0.800868
0.736955
0.698348
0.697374
0.703214
0.73436
0.794704
0.836231
0.893656
0.94232
0.981577
1.026997
1.062684
1.096425
1.043219
0.95108
0.851804
0.749284
0.677909
0.637355
0.645141
0.663958
0.688615
0.759016
0.832338
0.918312
0.982874
1.029268
1.057169
1.095777
1.08507
0.978008
0.882625
0.788215
0.707756
0.648385
0.627946
0.638977
0.658767
0.699321
0.754474
0.823578
0.898198
0.952702
1.000718
1.030566
1.045814
1.021806
0.92253
0.826498
0.727547
0.662336
0.619511
0.60848
0.603614
0.611725
0.660065
0.725276
0.821307
0.910202
0.979954
1.017264
1.024726
1.028295
0.959191
0.863483
0.765505
0.674664
0.617564
0.575064
0.584472
0.596801
0.614644
0.682126
0.780105
0.87711
0.958542
1.01694
1.047112
1.06236
1.031539
0.913122
0.821632
0.732089
0.670122
0.619186
0.593556
0.602316
0.626648
0.652279
0.69413
0.774914
0.862186
0.924801
0.975737
0.984821
0.986767
0.956595
0.856022
0.773291
0.681802
0.607183
0.550731
0.533861
0.518937
0.542296
0.606858
0.67434
0.767452
0.84564
0.908255
0.946862
0.971519
0.974439
0.898198
0.790811
0.683424
0.591285
0.53159
0.479681
0.481303
0.503689
0.522506
0.573442
0.637355
0.706134
0.760963
0.796326
0.804437
0.82001
0.804761
0.698672
0.601343
0.510502
0.439776
0.376187
0.338878
0.323629
0.329469
0.346988
0.403764
0.483574
0.550083
0.586743
0.607831
0.598747
0.582526
0.518937
0.393382
0.279507
0.181528
0.104962
0.053378
0.037805
0.026774
0.026126
0.050782
0.079008
0.139677
0.201643
0.251281
0.286644
0.302866
0.299621
0.225327
0.118913
0.008931
-0.093265
-0.165614
-0.223362
-0.236015
-0.252561
-0.259374
-0.23342
-0.169831
-0.102025
-0.023512
0.048511
0.078359
0.102043
0.093932
0.004713
-0.061147
-0.148419
-0.214603
-0.240557
-0.251588
-0.247046
-0.209736
-0.161071
-0.08775
0.008282
0.098798
0.170173
0.252579
0.282427
0.313572
0.273018
0.189315
0.129619
0.06376
0.019313
-0.001451
0.00666
0.030343
0.066031
0.131566
0.196128
0.284049
0.373592
0.445291
0.490387
0.523479
0.509853
0.432963
0.333687
0.228571
0.13481
0.100745
0.112749
0.176337
0.223704
0.274965
0.328171
0.382351
0.453726
0.520884
0.579606
0.601343
0.622431
0.600369
0.497849
0.395004
0.28924
0.195154
0.133837
0.101069
0.103016
0.150058
0.222082
0.299621
0.381703
0.455349
0.501093
0.55138
0.577659
0.603938
0.577984
0.496551
0.413821
0.330767
0.279507
0.253228
0.266529
0.289564
0.312274
0.366454
0.437505
0.544243
0.649034
0.741497
0.807681
0.862835
0.868674
0.800219
0.701592
0.604911
0.538079
0.530292
0.545216
0.605236
0.654874
0.716192
0.814494
0.914095
1.015642
1.111349
1.209328
1.277458
1.338451
1.344616
1.262534
1.201541
1.158716
1.143792
1.164556
1.216141
1.298871
1.419884
1.555821
1.706033
1.842294
1.945139
2.003861
2.045388
2.047984
2.051553
2.000617
1.905883
1.821855
1.745938
1.694353
1.643093
1.642444
1.654448
1.681051
1.74756
1.832885
1.925024
1.993155
2.010999
2.014567
2.021056
1.999968
1.915616
1.828992
1.747884
1.674887
1.622978
1.581775
1.580478
1.583722
1.600592
1.651204
1.714468
1.775461
1.825099
1.851703
1.847485
1.841645
1.797198
1.666776
1.561012
1.458167
1.371868
1.300168
1.268699
1.265454
1.293031
1.339425
1.400093
1.472442
1.547385
1.59313
1.616489
1.603837
1.594104
1.501316
1.376086
1.283622
1.223603
1.203163
1.19635
1.221332
1.263508
1.291733
1.331638
1.374139
1.431239
1.492232
1.533435
1.568798
1.599619
1.611947
1.538301
1.460438
1.361162
1.271943
1.212247
1.160987
1.158392
1.17072
1.213221
1.277783
1.355322
1.43059
1.492881
1.532462
1.560038
1.597672
1.592157
1.48769
1.375112
1.266428
1.190511
1.15385
1.158716
1.17948
1.220683
1.278107
1.339425
1.420533
1.488988
1.520782
1.555172
1.564905
1.569122
1.500343
1.395227
1.287516
1.19927
1.141521
1.096101
1.093505
1.089288
1.094154
1.143468
1.210301
1.308279
1.396849
1.458167
1.486392
1.511698
1.508129
1.399445
1.285893
1.172342
1.079555
1.027321
0.990661
0.997149
1.019535
1.082799
1.15969
1.246962
1.311848
1.352726
1.387765
1.395876
1.389387
1.348184
1.23658
1.148659
1.073066
1.007531
0.964706
0.950431
0.944267
0.973466
1.039325
1.109078
1.20803
1.299844
1.354997
1.382574
1.388089
1.38225
1.308279
1.208679
1.105185
1.016291
0.949458
0.905984
0.901442
0.915717
0.958866
1.026348
1.098696
1.18532
1.252153
1.294653
1.326447
1.346887
1.333261
1.237229
1.143792
1.055547
0.968275
0.923179
0.890736
0.902415
0.925125
0.977359
1.039325
1.123029
1.194728
1.249557
1.288165
1.305035
1.29952
1.242095
1.128869
1.029592
0.946538
0.878083
0.823578
0.805086
0.799246
0.827472
0.88814
0.967626
1.068524
1.144441
1.181102
1.218087
1.25053
1.265779
1.20219
1.089612
0.974115
0.881327
0.837205
0.832338
0.852453
0.880029
0.91377
0.97087
1.017913
1.079555
1.14509
1.195053
1.231389
1.253775
1.22198
1.108429
1.002665
0.908255
0.825849
0.803464
0.796651
0.814494
0.845964
0.903389
0.965679
1.045165
1.117838
1.172342
1.206083
1.205434
1.195701
1.160663
1.059116
0.967626
0.893331
0.85667
0.835258
0.835907
0.839151
0.846613
0.872243
0.905011
0.981901
1.06236
1.117513
1.156445
1.180129
1.179804
1.110052
1.00526
0.897873
0.814494
0.752528
0.724302
0.73144
0.748959
0.779131
0.855048
0.928694
1.004287
1.067875
1.108105
1.131464
1.138277
1.119784
1.024726
0.949133
0.864781
0.783024
0.732089
0.720409
0.750257
0.769398
0.78854
0.81709
0.890411
0.971519
1.044192
1.1107
1.163583
1.19927
1.178831
1.062684
0.949782
0.843693
0.762261
0.712298
0.705485
0.708081
0.735657
0.790162
0.854399
0.939725
1.012398
1.058791
1.082799
1.094154
1.105185
1.045165
0.945565
0.826498
0.743119
0.688939
0.66558
0.680504
0.698023
0.723653
0.790162
0.876785
0.964057
1.035432
1.071444
1.095128
1.115567
1.114269
1.013371
0.919286
0.818387
0.73436
0.682775
0.66266
0.676611
0.695752
0.73728
0.795677
0.876136
0.966004
1.031539
1.083773
1.103887
1.101292
1.06236
0.940049
0.825849
0.727222
0.662336
0.636381
0.642546
0.657794
0.692184
0.749608
0.80249
0.885869
0.946538
0.984496
1.012722
1.029268
1.044841
0.986767
0.899171
0.788864
0.6831
0.604911
0.542945
0.52575
0.526399
0.567926
0.664931
0.762585
0.854075
0.923828
0.961786
0.997149
1.041272
1.056845
0.952702
0.837529
0.713272
0.629893
0.583499
0.561438
0.571495
0.620484
0.672718
0.735009
0.823578
0.901766
0.969248
1.014344
1.025699
1.028295
0.986443
0.888465
0.796651
0.699646
0.613996
0.561113
0.543594
0.546189
0.572468
0.639626
0.706783
0.797948
0.860239
0.897224
0.917015
0.917988
0.905011
0.827796
0.734684
0.627622
0.536456
0.49136
0.465406
0.48033
0.504338
0.530292
0.568251
0.616915
0.687317
0.763559
0.818063
0.841422
0.848884
0.827796
0.726249
0.634435
0.530617
0.441722
0.365481
0.32882
0.326549
0.348611
0.392733
0.462162
0.55722
0.645465
0.711649
0.781727
0.810926
0.817414
0.751555
0.630866
0.52283
0.433287
0.369374
0.344069
0.38008
0.402142
0.431341
0.487143
0.548136
0.611725
0.651954
0.696401
0.735009
0.771994
0.784647
0.726573
0.644817
0.561438
0.482276
0.437829
0.405062
0.409928
0.425176
0.450482
0.511475
0.575388
0.650332
0.718787
0.774265
0.791135
0.790162
0.770372
0.65974
0.574739
0.492334
0.437505
0.402791
0.390462
0.388516
0.421932
0.464757
0.533861
0.624702
0.708081
0.759341
0.797624
0.800868
0.802815
0.750257
0.644168
0.549109
0.461513
0.402791
0.376187
0.391111
0.408306
0.433287
0.493631
0.567277
0.664282
0.730467
0.776211
0.798273
0.812223
0.800544
0.716192
0.609129
0.494929
0.400844
0.342122
0.313572
0.330442
0.351206
0.389164
0.479681
0.553002
0.640923
0.719436
0.774914
0.788215
0.811899
0.799895
0.678557
0.566953
0.467677
0.396951
0.360615
0.356721
0.358343
0.404413
0.447238
0.5118
0.592908
0.681153
0.733062
0.783673
0.796975
0.804112
0.749932
0.660389
0.569224
0.47449
0.40863
0.38592
0.410901
0.449184
0.496551
0.570846
0.636706
0.721707
0.785295
0.838827
0.883598
0.905335
0.879381
0.77102
0.654874
0.547812
0.468001
0.414146
0.381378
0.393707
0.424528
0.473841
0.545216
0.62308
0.704836
0.760314
0.798273
0.800868
0.810926
0.783024
0.662985
0.565006
0.474814
0.409279
0.375538
0.38008
0.389813
0.413172
0.441074
0.506609
0.602316
0.701592
0.761288
0.799895
0.807357
0.803788
0.735333
0.624702
0.518613
0.431341
0.377161
0.349908
0.358343
0.36613
0.39176
0.456646
0.524452
0.609454
0.667851
0.695103
0.704512
0.725276
0.69413
0.594854
0.484547
0.383
0.296377
0.242846
0.213971
0.246415
0.267827
0.305786
0.366454
0.437505
0.525101
0.603938
0.663958
0.671744
0.673367
0.652279
0.539052
0.430043
0.33174
0.251606
0.227598
0.245117
0.273991
0.328171
0.392084
0.462162
0.536781
0.613996
0.675313
0.720409
0.723005
0.726249
0.664607
0.572793
0.479681
0.392084
0.319412
0.267503
0.271071
0.295728
0.335633
0.414146
0.519262
0.638977
0.723978
0.769723
0.787242
0.793082
0.767127
0.676935
0.584797
0.496876
0.431665
0.400195
0.378458
0.403439
0.435558
0.496876
0.5689
0.651954
0.747661
0.821307
0.882625
0.903064
0.912148
0.893331
0.787891
0.690886
0.584472
0.492983
0.423554
0.409604
0.424203
0.49136
0.574415
0.662336
0.75707
0.839476
0.883598
0.922206
0.941996
0.95692
0.896251
0.783024
0.680828
0.61724
0.599721
0.577984
0.594854
0.61432
0.656821
0.722031
0.79957
0.877434
0.927397
0.961786
0.987092
1.030241
1.041921
0.962111
0.863159
0.765181
0.685046
0.649034
0.624702
0.640599
0.656172
0.702241
0.769398
0.862835
0.962435
1.044841
1.124651
1.153525
1.17364
1.151903
1.041596
0.941996
0.850506
0.764207
0.70873
0.706783
0.727222
0.771345
0.831365
0.90566
0.993581
1.05944
1.102265
1.136979
1.140548
1.143468
1.07404
0.973141
0.899171
0.865106
0.848235
0.837853
0.861861
0.888789
0.922854
0.991958
1.063658
1.154499
1.231065
1.299195
1.334883
1.363757
1.346238
1.246313
1.138926
1.038028
0.960164
0.914095
0.888465
0.912797
0.942969
0.994878
1.066902
1.151903
1.243393
1.304062
1.354024
1.372192
1.39036
1.367326
1.258966
1.154499
1.060413
0.975088
0.928694
0.926099
0.944267
0.986767
1.040623
1.101616
1.193106
1.282649
1.343642
1.396849
1.411773
1.406582
1.329367
1.234633
1.13633
1.052952
1.00526
0.980928
1.010127
1.061062
1.109727
1.166827
1.224251
1.294978
1.352078
1.400093
1.417288
1.433834
1.422479
1.328394
1.239175
1.154823
1.097723
1.084746
1.069498
1.092208
1.14801
1.206732
1.263183
1.341696
1.423777
1.49061
1.54187
1.560363
1.569447
1.533759
1.42475
1.321257
1.218736
1.123029
1.068849
1.074688
1.117189
1.171694
1.246637
1.293031
1.348509
1.405609
1.44746
1.488988
1.516889
1.527595
1.444216
1.334883
1.228794
1.137953
1.075337
1.044192
1.064307
1.088963
1.118162
1.181426
1.234633
1.292707
1.340074
1.372841
1.383223
1.392956
1.383223
1.306008
1.24242
1.170396
1.100319
1.043543
0.999745
1.001367
1.0111
1.062684
1.128869
1.214519
1.305035
1.37057
1.406582
1.413395
1.420533
1.384845
1.274214
1.160663
1.05652
0.974115
0.911175
0.891709
0.899495
0.931614
1.004611
1.099994
1.204137
1.27908
1.306333
1.324501
1.317363
1.309901
1.230091
1.134059
1.026997
0.932587
0.866079
0.813197
0.815468
0.840449
0.86835
0.942645
1.032188
1.114269
1.194079
1.234958
1.251179
1.261237
1.244042
1.144117
1.059116
0.972492
0.8969
0.852777
0.820334
0.808979
0.796002
0.841747
0.914419
1.009478
1.090261
1.150281
1.190511
1.195053
1.187266
1.145415
1.041596
0.933561
0.832014
0.750257
0.69705
0.686668
0.690237
0.718787
0.801193
0.89106
1.008504
1.103563
1.136006
1.165529
1.156445
1.152552
1.073715
0.986767
0.901442
0.82812
0.77686
0.733711
0.737928
0.753826
0.789513
0.854399
0.934534
1.007207
1.076635
1.109078
1.126922
1.140224
1.128869
1.02797
0.929343
0.827147
0.745715
0.70581
0.69413
0.71976
0.750906
0.811574
0.87419
0.949133
1.012398
1.06528
1.105185
1.109727
1.108754
1.062036
0.952378
0.850182
0.752852
0.672069
0.629244
0.629244
0.644168
0.677909
0.74831
0.833311
0.946214
1.019211
1.053925
1.083448
1.099994
1.102265
1.019535
0.926099
0.824552
0.741173
0.682775
0.653576
0.662985
0.682775
0.711325
0.766478
0.834285
0.901766
0.959515
0.986767
0.998771
1.008504
1.011749
0.922854
0.846613
0.756421
0.698672
0.656496
0.65455
0.6685
0.689588
0.738902
0.804112
0.891385
0.967626
1.034783
1.088315
1.092857
1.092208
1.044192
0.93129
0.827147
0.737604
0.649359
0.612049
0.6114
0.638004
0.667851
0.743768
0.826174
0.908904
0.978981
1.020833
1.049383
1.066902
1.07112
0.981901
0.872568
0.754799
0.662011
0.606534
0.572793
0.601018
0.630866
0.658767
0.724627
0.811899
0.898522
0.964382
0.992283
1.003638
1.010127
0.990012
0.878407
0.785295
0.683748
0.603289
0.550407
0.527048
0.537754
0.580579
0.640599
0.73144
0.844666
0.9394
1.000069
1.046138
1.035108
1.003638
0.938752
0.830391
0.726573
0.638977
0.577984
0.56598
0.572793
0.589988
0.610751
0.656172
0.69121
0.76583
0.84272
0.903713
0.943943
0.963408
0.94816
0.871594
0.787566
0.686344
0.604587
0.540674
0.500445
0.502716
0.52283
0.546514
0.608805
0.680504
0.753826
0.806059
0.828769
0.824227
0.813197
0.793406
0.692508
0.623729
0.547487
0.481303
0.432638
0.419985
0.425176
0.467677
0.529643
0.614969
0.724302
0.807032
0.857644
0.893331
0.89106
0.882949
0.831365
0.738902
0.652279
0.558842
0.482276
0.449509
0.46573
0.493631
0.529643
0.592908
0.654874
0.741822
0.812548
0.852128
0.881652
0.906308
0.901766
0.834933
0.766803
0.679855
0.606209
0.55722
0.516666
0.525426
0.553002
0.594854
0.668176
0.758368
0.850182
0.91377
0.95692
0.974439
0.972492
0.932912
0.82001
0.726249
0.627622
0.571495
0.544243
0.552678
0.571819
0.629893
0.692184
0.75415
0.829743
0.902091
0.943294
0.98255
0.98547
0.982874
0.927721
0.825525
0.729818
0.631839
0.557544
0.519586
0.543594
0.592259
0.650981
0.723978
0.807032
0.918961
1.006558
1.047761
1.057494
1.069498
1.049383
0.966653
0.871594
0.774914
0.696401
0.640599
0.609454
0.630217
0.657145
0.698348
0.775563
0.865754
0.952378
1.020184
1.071769
1.092857
1.116216
1.099021
0.981252
0.878732
0.77686
0.714245
0.674664
0.672069
0.690237
0.738902
0.797624
0.864132
0.941347
1.007856
1.051005
1.080204
1.082475
1.083773
1.030566
0.93129
0.8398
0.754474
0.682126
0.650007
0.661687
0.6831
0.708405
0.77978
0.854724
0.941996
1.00818
1.055871
1.075986
1.092857
1.071769
0.988065
0.886194
0.789837
0.70873
0.643843
0.595827
0.590961
0.610427
0.661687
0.750581
0.852777
0.953027
1.017913
1.052303
1.044516
1.041596
1.022131
0.915717
0.826174
0.716516
0.634435
0.598098
0.590637
0.601343
0.651305
0.737604
0.826498
0.917988
1.012722
1.080204
1.11362
1.089937
1.049383
0.965355
0.867701
0.803139
0.745715
0.686344
0.642221
0.64871
0.679206
0.720409
0.803139
0.882301
0.977683
1.051329
1.109078
1.120109
1.123029
1.089612
0.987416
0.886194
0.788864
0.717814
0.683748
0.661687
0.668825
0.690886
0.737604
0.810277
0.905011
1.000394
1.060089
1.109403
1.121407
1.123678
1.090586
0.980928
0.881327
0.787242
0.721707
0.67726
0.665256
0.668825
0.698997
0.752852
0.824552
0.907282
0.988714
1.043867
1.087341
1.101941
1.105509
1.042894
0.941671
0.831689
0.737928
0.665905
0.622755
0.643519
0.6831
0.726898
0.795677
0.864132
0.945565
1.004936
1.040299
1.049707
1.057818
1.036081
0.933561
0.838502
0.750257
0.693806
0.675962
0.681477
0.717165
0.735657
0.758692
0.785295
0.846613
0.930641
0.982874
1.033161
1.064956
1.080204
1.040948
0.92545
0.828769
0.749608
0.692184
0.657794
0.660714
0.667851
0.70581
0.752203
0.817414
0.895927
0.971519
1.03089
1.071444
1.089288
1.089612
1.017264
0.903713
0.79957
0.712947
0.646114
0.60556
0.617564
0.637355
0.681802
0.763234
0.831365
0.907606
0.974764
1.021157
1.044192
1.068849
1.055223
0.971519
0.877434
0.783673
0.701917
0.649034
0.635732
0.663958
0.700619
0.752203
0.824227
0.907931
0.988065
1.031539
1.069498
1.067551
1.070795
1.049707
0.941347
0.837205
0.729169
0.647736
0.588041
0.571171
0.578957
0.641248
0.732413
0.820983
0.911175
0.981252
1.012722
1.041272
1.054898
1.049707
0.974439
0.872568
0.77978
0.695752
0.628271
0.577659
0.584148
0.61724
0.668825
0.740524
0.810601
0.900469
0.975412
1.021157
1.032188
1.033161
0.997474
0.874839
0.762261
0.69121
0.641572
0.621133
0.636381
0.667527
0.686993
0.723005
0.778482
0.85667
0.946862
1.00234
1.038028
1.031539
1.02797
1.00526
0.904362
0.80249
0.711974
0.644817
0.603289
0.608805
0.638004
0.687642
0.74831
0.79957
0.869323
0.948485
1.004287
1.039974
1.051978
1.058467
0.986443
0.878083
0.765505
0.66266
0.599072
0.559167
0.576037
0.599721
0.634759
0.698348
0.783673
0.87711
0.946862
1.004611
1.040948
1.061711
1.028944
0.911824
0.806708
0.709703
0.633786
0.599072
0.573442
0.591285
0.613996
0.685371
0.770372
0.860239
0.958866
1.018237
1.059765
1.05652
1.047112
1.011424
0.909553
0.799895
0.718138
0.658118
0.614644
0.605885
0.603938
0.634435
0.703539
0.801841
0.916366
1.007207
1.063658
1.082475
1.068849
1.040623
0.946862
0.842395
0.75123
0.680504
0.630217
0.606209
0.632488
0.664931
0.699321
0.769723
0.854075
0.934534
1.003638
1.046463
1.072417
1.098048
1.101941
1.020833
0.943294
0.854399
0.776211
0.746039
0.727547
0.74539
0.756745
0.790486
0.848884
0.939076
1.022779
1.080204
1.121407
1.136979
1.153525
1.119784
1.024726
0.92545
0.828445
0.749932
0.703863
0.70289
0.710352
0.735333
0.792109
0.853751
0.933236
1.007531
1.054898
1.083448
1.084097
1.073391
0.985145
0.869323
0.764532
0.681477
0.636381
0.603289
0.622431
0.647088
0.684397
0.755772
0.844666
0.930316
0.997149
1.021806
1.022131
1.024402
1.001042
0.893331
0.804112
0.716192
0.638328
0.605885
0.598747
0.621458
0.642221
0.681153
0.73436
0.823254
0.895278
0.950107
1.007207
1.020508
1.026348
0.975737
0.868026
0.752852
0.660065
0.597125
0.573766
0.576686
0.587068
0.604911
0.669149
0.742146
0.840124
0.934534
0.991634
1.029917
1.015966
0.98547
0.871919
0.751555
0.641572
0.561438
0.512124
0.504013
0.555598
0.594854
0.638004
0.701917
0.775238
0.860239
0.935832
0.986443
1.000394
1.004287
0.977359
0.863159
0.762585
0.669149
0.590637
0.540998
0.521208
0.535808
0.565331
0.606209
0.674989
0.755448
0.831365
0.897873
0.950756
0.963084
0.984172
0.944916
0.832987
0.713596
0.623404
0.559816
0.555273
0.583823
0.613996
0.644168
0.703863
0.758043
0.830067
0.902091
0.949133
0.974764
0.965031
0.941023
0.843693
0.753501
0.641248
0.550407
0.523479
0.53159
0.577335
0.607507
0.657794
0.720085
0.793406
0.867052
0.9394
0.974764
0.989687
0.986119
0.961462
0.840449
0.745715
0.652927
0.57993
0.535159
0.512124
0.537105
0.590961
0.646114
0.718138
0.812548
0.88814
0.931614
0.958866
0.950756
0.947836
0.914095
0.829418
0.740524
0.65974
0.584797
0.536781
0.534834
0.559167
0.598747
0.67142
0.743768
0.832662
0.901118
0.948809
0.974115
0.992932
0.97671
0.883923
0.791135
0.696077
0.612373
0.550731
0.516017
0.535159
0.571171
0.618862
0.702241
0.7827
0.860239
0.92253
0.957569
0.978008
0.983848
0.961137
0.850506
0.759665
0.664931
0.599721
0.572793
0.577659
0.592583
0.629893
0.689588
0.759665
0.856346
0.926748
0.967626
0.995852
0.998771
1.012722
0.965355
0.872243
0.761288
0.672718
0.604587
0.571495
0.580579
0.62308
0.672069
0.747337
0.828769
0.916041
0.961786
0.986119
1.000069
1.02797
1.034459
0.950756
0.857319
0.738577
0.639301
0.592259
0.587068
0.62308
0.655847
0.686344
0.738902
0.818063
0.907606
0.983199
1.031539
1.052303
1.062036
1.042245
0.926423
0.824227
0.722356
0.653252
0.610427
0.594854
0.587392
0.622431
0.679855
0.749608
0.846937
0.933561
1.003314
1.041921
1.051654
1.037703
0.966977
0.844018
0.744093
0.662336
0.613022
0.596801
0.624377
0.660065
0.691535
0.743768
0.805735
0.907282
0.989039
1.032188
1.041596
1.053276
1.032837
0.932587
0.834609
0.74831
0.686344
0.653576
0.625026
0.639301
0.660389
0.688939
0.749608
0.82001
0.904362
0.980928
1.01986
1.038677
1.04257
1.022455
0.924152
0.83396
0.740199
0.672393
0.655523
0.6831
0.704188
0.721382
0.755772
0.82001
0.900469
0.964382
1.018562
1.060413
1.070146
1.081826
1.03381
0.923503
0.82812
0.746039
0.689588
0.660714
0.670122
0.695103
0.725276
0.793082
0.861212
0.942969
0.999745
1.030241
1.039325
1.049058
1.03089
0.926423
0.831689
0.753826
0.693481
0.653901
0.637355
0.660065
0.674015
0.692508
0.756745
0.846937
0.933236
0.993905
1.028944
1.040623
1.054249
1.032188
0.917664
0.814494
0.723653
0.66266
0.619511
0.607507
0.6114
0.646439
0.712947
0.797948
0.907606
1.006558
1.063009
1.095777
1.097723
1.080204
0.992932
0.873865
0.767452
0.680828
0.630542
0.618213
0.657145
0.701592
0.74247
0.795028
0.840449
0.905984
0.965679
1.014993
1.038677
1.04549
1.017588
0.918637
0.823254
0.735009
0.661038
0.622755
0.621782
0.644817
0.677584
0.713272
0.780429
0.857968
0.935183
0.993905
1.031215
1.039974
1.039974
1.003638
0.888789
0.795677
0.697699
0.631515
0.583499
0.571495
0.569548
0.609778
0.68018
0.752528
0.846937
0.932912
0.989363
1.044192
1.067875
1.078582
1.007531
0.883598
0.755772
0.643843
0.582526
0.545865
0.575388
0.626324
0.680504
0.756421
0.826498
0.917339
0.997149
1.057169
1.086368
1.080204
1.028295
0.906957
0.797948
0.699646
0.621782
0.575713
0.563709
0.593232
0.633461
0.686668
0.753826
0.827796
0.908904
0.977683
1.021806
1.021157
1.005585
0.957569
0.825525
0.719436
0.63411
0.603289
0.589014
0.601018
0.601018
0.623729
0.663634
0.727222
0.818712
0.919286
0.994554
1.039974
1.051005
1.050356
0.994229
0.901766
0.811574
0.723005
0.649034
0.583823
0.573766
0.599721
0.644817
0.721058
0.794055
0.883923
0.950431
0.985145
0.990661
0.996176
0.966653
0.874514
0.794704
0.70581
0.615618
0.568251
0.556247
0.578633
0.622431
0.677584
0.759341
0.845964
0.928045
0.987416
1.01694
1.015642
1.007531
0.969897
0.859915
0.768425
0.670122
0.60556
0.556571
0.553651
0.552029
0.589014
0.646114
0.71684
0.815792
0.895602
0.93421
0.957244
0.962435
0.956595
0.903713
0.814819
0.719111
0.637355
0.593232
0.548136
0.552354
0.564358
0.596476
0.652279
0.72852
0.833311
0.930316
0.987741
1.016615
1.026348
0.999096
0.909553
0.807357
0.704512
0.610427
0.56306
0.542945
0.562411
0.589988
0.635732
0.711001
0.798273
0.879381
0.941023
0.989687
0.995852
0.994878
0.961137
0.860888
0.762261
0.66558
0.60556
0.573117
0.596476
0.625675
0.672393
0.738253
0.784971
0.843693
0.906308
0.958218
1.000394
1.003638
0.981252
0.903713
0.809952
0.71684
0.629568
0.568575
0.528021
0.553327
0.589014
0.624377
0.698997
0.780753
0.85959
0.915393
0.954973
0.969573
0.988714
0.971519
0.883598
0.793731
0.698997
0.62016
0.570197
0.551056
0.570522
0.604911
0.656172
0.727871
0.813845
0.903389
0.977035
1.04257
1.045814
1.031215
0.985145
0.873541
0.775887
0.68829
0.626973
0.595827
0.597774
0.611076
0.644817
0.695752
0.750906
0.83688
0.908255
0.941023
0.96795
0.978657
0.9965
0.920908
0.830067
0.767127
0.723978
0.687966
0.657145
0.667527
0.686019
0.711974
0.768749
0.825201
0.898522
0.967302
1.021806
1.040299
1.049707
1.021157
0.911175
0.812223
0.730467
0.654874
0.610102
0.595503
0.613022
0.629568
0.669149
0.750906
0.843693
0.928694
0.987092
1.038352
1.049058
1.063658
1.011424
0.907606
0.789837
0.688939
0.623729
0.585446
0.592259
0.607507
0.644492
0.708405
0.773291
0.854724
0.926099
0.965031
0.9965
1.012722
1.022455
0.956595
0.852128
0.746688
0.66266
0.615293
0.584797
0.615942
0.635732
0.666878
0.71684
0.781402
0.866079
0.946538
1.000069
1.018562
1.026673
1.001042
0.898522
0.806708
0.718138
0.635408
0.586419
0.570846
0.590637
0.615293
0.664607
0.726898
0.800544
0.884572
0.940698
0.976386
0.972817
0.959515
0.894953
0.799895
0.727871
0.662336
0.616915
0.586094
0.572468
0.574739
0.603938
0.670771
0.735333
0.823578
0.894629
0.929668
0.954
0.960164
0.948809
0.872568
0.782376
0.689588
0.606534
0.56014
0.529968
0.542296
0.558193
0.599396
0.650981
0.723653
0.797624
0.865754
0.91085
0.930965
0.94232
0.917988
0.806384
0.697699
0.59453
0.513746
0.474166
0.462486
0.474166
0.492334
0.535159
0.595179
0.678233
0.754474
0.807681
0.852453
0.853426
0.860888
0.804437
0.695428
0.589014
0.503364
0.443345
0.415768
0.425176
0.442371
0.46281
0.518613
0.59161
0.67434
0.736955
0.761288
0.791135
0.805086
0.781078
0.682451
0.581228
0.505635
0.452753
0.421608
0.42031
0.488765
0.530617
0.582526
0.648385
0.707432
0.754474
0.784971
0.808979
0.825525
0.856346
0.861537
0.758043
0.661038
0.561113
0.480979
0.440749
0.436532
0.4547
0.504987
0.55138
0.606534
0.684722
0.754474
0.796326
0.82812
0.829418
0.835582
0.77686
0.670771
0.567277
0.475139
0.404413
0.358992
0.358343
0.398897
0.447887
0.530292
0.6114
0.69997
0.757719
0.785295
0.809303
0.827796
0.816116
0.747986
0.654874
0.553327
0.479032
0.427772
0.381703
0.389813
0.41155
0.449833
0.515044
0.598098
0.680828
0.751879
0.784322
0.779131
0.766154
0.727547
0.607507
0.513097
0.436207
0.370672
0.326225
0.31487
0.335309
0.389489
0.459891
0.532563
0.620809
0.681802
0.718138
0.752203
0.754799
0.755123
0.686993
0.576037
0.468975
0.37197
0.290537
0.259716
0.26588
0.29443
0.333038
0.403439
0.470272
0.559491
0.628271
0.679531
0.719436
0.738902
0.723329
0.626648
0.530292
0.433287
0.365481
0.328171
0.296053
0.308057
0.330118
0.371321
0.439127
0.516017
0.59453
0.682775
0.744093
0.768101
0.7827
0.764856
0.658443
0.559167
0.460539
0.384947
0.340824
0.323305
0.325251
0.361263
0.411226
0.472543
0.565655
0.656821
0.723978
0.783024
0.813845
0.844342
0.793731
0.692508
0.596476
0.51472
0.444967
0.422257
0.442047
0.480979
0.520559
0.585446
0.665905
0.767776
0.858941
0.917015
0.947836
0.960489
0.940374
0.835582
0.747013
0.670771
0.628271
0.602316
0.576037
0.596801
0.629244
0.686344
0.756097
0.841422
0.930965
1.013695
1.06528
1.080528
1.087341
1.05652
0.932587
0.83104
0.74539
0.691859
0.696401
0.709703
0.726898
0.763883
0.818712
0.885545
0.980279
1.055223
1.106158
1.149632
1.160338
1.166503
1.111349
1.01986
0.940049
0.877758
0.80541
0.753501
0.751555
0.761936
0.793082
0.863808
0.94524
1.039974
1.116216
1.158067
1.183698
1.209328
1.217763
1.141197
1.060089
0.950431
0.868674
0.820659
0.786269
0.797299
0.818387
0.871594
0.952702
1.039974
1.137304
1.205759
1.259615
1.29076
1.311848
1.295302
1.182075
1.071769
0.949782
0.850506
0.792433
0.780429
0.786918
0.824552
0.891709
0.957893
1.041596
1.124975
1.177858
1.217114
1.234309
1.247286
1.189213
1.088639
0.992932
0.924477
0.87711
0.856022
0.870297
0.894629
0.918637
0.978657
1.044192
1.125949
1.185969
1.23658
1.263832
1.276809
1.258317
1.155472
1.04841
0.936481
0.867377
0.818712
0.79146
0.79146
0.805735
0.840773
0.905984
1.003638
1.115242
1.206732
1.250855
1.249233
1.244042
1.220358
1.109403
1.020184
0.915717
0.843369
0.790811
0.788215
0.791135
0.82293
0.881003
0.94816
1.032512
1.106158
1.147037
1.163258
1.165205
1.162285
1.102265
1.013371
0.934858
0.878732
0.841747
0.814819
0.814494
0.821307
0.831365
0.89106
0.968599
1.063333
1.122704
1.164232
1.19343
1.21387
1.192457
1.093181
0.984172
0.875812
0.807681
0.773616
0.750581
0.758692
0.776211
0.816765
0.876785
0.960813
1.058142
1.130815
1.177858
1.185969
1.178507
1.136655
1.028944
0.937454
0.842071
0.766154
0.710676
0.700619
0.70873
0.750906
0.826498
0.905984
1.005909
1.087666
1.141521
1.183049
1.203812
1.196999
1.116216
1.001691
0.905011
0.83396
0.771994
0.737604
0.740524
0.758368
0.774589
0.83688
0.907931
0.998447
1.077608
1.137628
1.166178
1.198621
1.192457
1.115242
1.037703
0.949782
0.890087
0.845315
0.818387
0.809628
0.81417
0.842395
0.903713
0.986767
1.073715
1.14509
1.188888
1.197972
1.199919
1.169747
1.052952
0.950431
0.854724
0.781727
0.732413
0.732089
0.755448
0.793082
0.855373
0.927072
1.007531
1.086044
1.139899
1.180453
1.20511
1.203163
1.120109
0.999096
0.88522
0.79438
0.738253
0.702565
0.722031
0.773616
0.82001
0.890087
0.941347
1.000069
1.043867
1.082799
1.111349
1.126598
1.094479
1.004287
0.914744
0.836556
0.777509
0.735657
0.711325
0.711974
0.735333
0.792433
0.865106
0.962111
1.061387
1.138602
1.188564
1.193755
1.187915
1.158067
1.040948
0.936156
0.826498
0.737604
0.678882
0.670122
0.673042
0.712623
0.777185
0.861212
0.969573
1.061711
1.108105
1.132437
1.132762
1.132437
1.058467
0.946538
0.850182
0.774589
0.733062
0.701917
0.707756
0.729818
0.769398
0.846289
0.917664
0.997798
1.052627
1.088963
1.092532
1.106807
1.085395
0.984821
0.878732
0.770047
0.686344
0.635408
0.612373
0.640275
0.674989
0.72268
0.783673
0.857968
0.947836
1.0111
1.06528
1.070795
1.070471
1.02797
0.908579
0.810277
0.707756
0.633137
0.58285
0.580579
0.593881
0.632164
0.693157
0.777509
0.863808
0.934858
0.976061
1.012722
1.040299
1.045165
0.944916
0.813197
0.691859
0.604911
0.559491
0.539052
0.575064
0.616915
0.657469
0.73436
0.806059
0.884572
0.94232
0.974439
0.976386
0.978657
0.958866
0.854724
0.740848
0.638004
0.581877
0.561438
0.55138
0.566629
0.567926
0.613996
0.682126
0.767776
0.868026
0.930641
0.965031
0.959515
0.960164
0.94232
0.85667
0.767127
0.671096
0.588365
0.530292
0.518937
0.515044
0.543918
0.611076
0.695103
0.801193
0.898847
0.955622
0.978981
0.997149
1.000718
0.918312
0.814494
0.709378
0.622431
0.571495
0.528995
0.53743
0.562735
0.610102
0.698023
0.786918
0.87711
0.938752
0.971844
0.984496
0.994554
0.970221
0.859915
0.762261
0.664607
0.592583
0.563709
0.558518
0.572144
0.580255
0.614644
0.657145
0.723005
0.809952
0.882301
0.957569
0.981577
0.995527
0.958542
0.860564
0.757719
0.661363
0.582526
0.537754
0.544567
0.559816
0.592583
0.654225
0.715867
0.800544
0.883598
0.93421
0.958866
0.966328
0.961462
0.892358
0.801193
0.695428
0.580579
0.52283
0.48325
0.498822
0.522506
0.572468
0.662011
0.753177
0.837205
0.908904
0.942969
0.951404
0.974764
0.962111
0.868026
0.774589
0.673367
0.587717
0.529319
0.492334
0.495254
0.54035
0.640275
0.726898
0.823903
0.914095
0.968599
1.004936
0.995852
0.993905
0.942645
0.83688
0.735982
0.65163
0.570846
0.532239
0.545541
0.572793
0.609129
0.672393
0.741497
0.816116
0.877434
0.917015
0.952702
0.975412
0.965679
0.887491
0.795028
0.706783
0.629244
0.579606
0.543594
0.56598
0.593232
0.640599
0.704512
0.786918
0.87127
0.947836
0.994229
1.007531
1.015966
1.000718
0.897873
0.795677
0.693157
0.60848
0.550083
0.519262
0.540025
0.591934
0.656172
0.736955
0.829743
0.925125
0.974115
1.012398
1.024402
1.044841
0.998447
0.895278
0.796326
0.714245
0.649034
0.615618
0.623729
0.638652
0.67726
0.747661
0.82001
0.903064
0.966004
1.000394
1.022131
1.051654
1.041596
0.955946
0.850831
0.743444
0.65163
0.58577
0.541323
0.565331
0.60848
0.671744
0.758692
0.849857
0.931614
1.002665
1.057818
1.072093
1.074688
1.03673
0.918961
0.819685
0.730467
0.671096
0.638652
0.627297
0.642546
0.684722
0.740524
0.821956
0.911499
0.991634
1.029917
1.071444
1.074688
1.087666
1.029592
0.913446
0.801193
0.713921
0.638328
0.590312
0.596152
0.602965
0.629568
0.688939
0.757394
0.85667
0.953027
1.013046
1.046463
1.049383
1.014993
0.911499
0.79438
0.684722
0.613022
0.572468
0.537754
0.552354
0.572793
0.612373
0.679531
0.760963
0.864132
0.940374
0.986767
0.994878
1.012073
1.001367
0.898522
0.809628
0.725924
0.660389
0.623729
0.612373
0.626973
0.664931
0.712947
0.763883
0.838502
0.90566
0.955946
1.009478
1.030241
1.043219
0.980603
0.87419
0.77102
0.687642
0.625351
0.601992
0.616915
0.630542
0.647412
0.709378
0.784971
0.881976
0.973466
1.038352
1.073066
1.087341
1.062684
0.963408
0.881652
0.788864
0.721382
0.669473
0.634759
0.646763
0.665256
0.703214
0.768101
0.857319
0.935507
1.006558
1.041596
1.038028
1.032512
1.017913
0.934534
0.863483
0.786918
0.713921
0.666878
0.644492
0.644492
0.660714
0.696401
0.753826
0.853426
0.951404
1.009478
1.05652
1.065604
1.063009
0.991634
0.881976
0.771345
0.680828
0.612698
0.582526
0.604911
0.625026
0.650656
0.711974
0.773616
0.85959
0.920259
0.951729
0.976061
1.00234
1.004287
0.922854
0.822281
0.715218
0.625675
0.565006
0.526399
0.547812
0.578633
0.643519
0.722031
0.804761
0.884247
0.938103
0.959191
0.950756
0.938427
0.907606
0.801517
0.698997
0.608156
0.525101
0.493956
0.493307
0.513422
0.56014
0.625675
0.685046
0.756421
0.818063
0.850506
0.885545
0.892033
0.888789
0.81709
0.702565
0.577984
0.453726
0.367752
0.310652
0.303839
0.316816
0.334011
0.385596
0.437505
0.491036
0.505635
0.496227
0.46281
0.422905
0.356072
0.207807
0.058893
-0.092292
-0.225633
-0.313554
-0.367734
-0.385254
-0.405044
-0.391093
-0.366761
-0.315176
-0.265538
-0.225958
-0.208763
-0.22466
-0.254832
-0.308039
-0.425483
-0.48161
-0.500427
-0.505942
-0.499778
-0.502049
-0.508538
-0.505293
-0.504969
-0.515675
-0.515026
-0.473175
-0.345349
-0.264241
-0.241206
-0.226931
-0.299604
-0.397907
-0.466362
-0.494263
-0.501725
-0.505618
-0.503347
-0.49556
-0.504969
-0.493614
-0.333669
-0.172427
-0.075746
-0.015077
0.006984
0.027099
0.032939
-0.042654
-0.121815
-0.205843
-0.269432
-0.299279
-0.309012
-0.28176
-0.239908
-0.165289
-0.069906
0.036183
0.139028
0.22338
0.290537
0.312599
0.326549
0.302541
0.196777
0.102367
0.030019
-0.02189
-0.035841
-0.010211
0.025801
0.090363
0.176337
0.266205
0.376836
0.478383
0.534185
0.571495
0.591934
0.592583
0.523155
0.424528
0.323305
0.241873
0.189315
0.16336
0.182826
0.233762
0.278209
0.348935
0.435883
0.552354
0.621458
0.67726
0.706459
0.744417
0.749932
0.659416
0.568575
0.466704
0.390138
0.341473
0.326225
0.34342
0.383325
0.442371
0.524128
0.616591
0.703539
0.779456
0.836231
0.857319
0.863808
0.828445
0.708081
0.601992
0.506933
0.443345
0.42031
0.43426
0.460215
0.493307
0.554625
0.63119
0.728195
0.796975
0.85148
0.89398
0.92545
0.9394
0.874839
0.776211
0.675313
0.588041
0.528346
0.509529
0.555273
0.618862
0.680504
0.778158
0.863159
0.959191
1.022455
1.050681
1.04841
1.041596
1.00234
0.878732
0.762261
0.647088
0.55722
0.499147
0.469299
0.474166
0.498498
0.550731
0.613022
0.687966
0.758043
0.805735
0.825525
0.83104
0.830067
0.795028
0.664931
0.540674
0.426474
0.33466
0.284698
0.288915
0.298648
0.329794
0.379432
0.433936
0.510177
0.583499
0.640599
0.674989
0.689264
0.684073
0.571171
0.427123
0.292484
0.200021
0.14357
0.10334
0.10918
0.14941
0.200345
0.279182
0.362561
0.455673
0.535808
0.58869
0.610102
0.609454
0.57701
0.463784
0.370996
0.282751
0.219811
0.185097
0.180879
0.211376
0.24901
0.317465
0.404413
0.4972
0.569548
0.619511
0.647412
0.650332
0.649034
0.613347
0.498498
0.397924
0.303515
0.235708
0.208132
0.22338
0.256148
0.310328
0.393058
0.46573
0.544567
0.607507
0.646763
0.689264
0.709703
0.701917
0.607183
0.500769
0.405711
0.33758
0.280155
0.242846
0.264583
0.305461
0.344069
0.418363
0.487467
0.554949
0.611076
0.645465
0.655847
0.676611
0.675962
0.580255
0.480654
0.378134
0.296701
0.258743
0.246415
0.2688
0.304812
0.375863
0.452429
0.544567
0.639626
0.711974
0.77394
0.789189
0.783349
0.736631
0.635084
0.533537
0.436856
0.368076
0.33758
0.340175
0.35445
0.392409
0.46281
0.552678
0.655523
0.748959
0.81417
0.854724
0.865754
0.860564
0.773291
0.666553
0.578308
0.509204
0.487143
0.473192
0.509204
0.56306
0.618862
0.69121
0.761936
0.846289
0.911175
0.957569
0.97379
0.994229
0.984172
0.889114
0.806059
0.717489
0.650981
0.613671
0.609129
0.639626
0.684397
0.748959
0.834609
0.939076
1.039001
1.116865
1.201541
1.251179
1.27389
1.245664
1.14217
1.024402
0.905011
0.817739
0.77978
0.798273
0.829094
0.873865
0.952053
1.043219
1.14509
1.216141
1.247611
1.270321
1.276809
1.279729
1.196999
1.090586
0.979306
0.890736
0.840449
0.81417
0.836556
0.861537
0.890087
0.960164
1.031863
1.118811
1.19343
1.238851
1.241122
1.245664
1.216465
1.10778
1.007207
0.905011
0.821307
0.771994
0.759341
0.773616
0.820983
0.867701
0.933236
1.016291
1.09091
1.126922
1.157419
1.142495
1.138926
1.086044
0.983199
0.893656
0.807032
0.740524
0.704836
0.714894
0.740524
0.774914
0.838178
0.906633
0.998447
1.076959
1.127246
1.152228
1.156121
1.134059
1.041921
0.940374
0.849208
0.78854
0.747013
0.720409
0.748635
0.792109
0.837205
0.917664
0.998123
1.08215
1.150281
1.185644
1.199919
1.219709
1.210301
1.115567
1.032188
0.949458
0.908579
0.885545
0.89106
0.917339
0.977035
1.053276
1.144117
1.257343
1.359215
1.418262
1.456545
1.449083
1.437079
1.400093
1.314443
1.228794
1.152876
1.095128
1.074364
1.107456
1.159365
1.21387
1.282
1.348184
1.426048
1.499694
1.548359
1.580153
1.588264
1.549981
1.446812
1.334558
1.230416
1.157094
1.115891
1.103887
1.145415
1.193755
1.233011
1.311848
1.4108
1.514293
1.585993
1.632387
1.637253
1.641146
1.6246
1.511698
1.401067
1.286218
1.201217
1.168774
1.170396
1.186617
1.235931
1.29952
1.392632
1.486717
1.561985
1.603188
1.6392
1.628818
1.627845
1.569447
1.469197
1.379979
1.288813
1.222629
1.186293
1.199595
1.227171
1.258966
1.31931
1.391334
1.473091
1.550305
1.593455
1.611623
1.622654
1.594753
1.495801
1.379979
1.261237
1.167151
1.111025
1.080528
1.111025
1.148659
1.19343
1.275836
1.37057
1.463358
1.525649
1.545763
1.542519
1.551928
1.523053
1.417937
1.322554
1.209976
1.12238
1.07404
1.075013
1.114594
1.184022
1.244366
1.314768
1.4108
1.50748
1.565229
1.606756
1.604485
1.595077
1.512022
1.380628
1.254099
1.15093
1.074688
1.03089
1.051978
1.090586
1.138602
1.223603
1.306008
1.388089
1.44746
1.473739
1.477633
1.484121
1.461087
1.374139
1.278756
1.186617
1.10259
1.057169
1.024402
1.056196
1.089612
1.147686
1.226847
1.31347
1.39036
1.453625
1.496125
1.491259
1.490285
1.454598
1.342993
1.22782
1.112971
1.020833
0.984821
0.969248
0.964706
0.995203
1.063982
1.13633
1.220358
1.309577
1.360188
1.404635
1.398796
1.391658
1.319959
1.200892
1.07404
0.945889
0.854399
0.807681
0.831365
0.870297
0.895602
0.964706
1.046138
1.155796
1.247935
1.294978
1.309577
1.30244
1.253126
1.138926
1.033486
0.940374
0.872892
0.826498
0.799246
0.826174
0.845964
0.886518
0.941671
1.009802
1.088963
1.144766
1.177209
1.17948
1.174938
1.136655
1.018237
0.920583
0.831365
0.765181
0.731764
0.723329
0.726249
0.76291
0.821956
0.881327
0.963733
1.025375
1.070146
1.118162
1.135682
1.146388
1.071769
0.957893
0.841747
0.759016
0.702565
0.679206
0.698997
0.741497
0.780753
0.844666
0.893007
0.950107
0.9965
1.027646
1.052303
1.061387
1.03381
0.940049
0.840449
0.747661
0.686993
0.657145
0.63411
0.657145
0.676286
0.720085
0.777509
0.860888
0.94524
1.00818
1.04549
1.065929
1.070146
1.029592
0.907282
0.798597
0.687642
0.595827
0.539052
0.541647
0.580255
0.646763
0.733711
0.813197
0.899495
0.971844
1.003638
1.029592
1.032188
1.035108
0.941671
0.819361
0.702565
0.605236
0.532888
0.504987
0.524777
0.55722
0.614969
0.708081
0.79438
0.880354
0.958218
1.00234
1.022455
1.029917
1.008829
0.896575
0.77978
0.664282
0.577335
0.530292
0.516342
0.549434
0.589988
0.652279
0.71976
0.796975
0.861537
0.89982
0.92253
0.927072
0.936156
0.910202
0.78854
0.682775
0.58869
0.523804
0.501742
0.515368
0.53451
0.58869
0.664282
0.737604
0.819685
0.882949
0.907282
0.927397
0.92545
0.922206
0.836231
0.7256
0.606534
0.512773
0.442371
0.407982
0.430692
0.478059
0.527048
0.607831
0.681802
0.750257
0.813845
0.850506
0.865106
0.879381
0.863159
0.758368
0.657145
0.559816
0.488765
0.447562
0.424528
0.446264
0.464757
0.496551
0.541972
0.627297
0.723005
0.796326
0.839476
0.837529
0.82001
0.770372
0.64871
0.539376
0.451455
0.384622
0.347313
0.359317
0.368725
0.40863
0.471246
0.533537
0.618538
0.707432
0.765181
0.801193
0.794055
0.764856
0.675313
0.572793
0.476112
0.38884
0.322656
0.276587
0.287942
0.324603
0.37489
0.464757
0.539376
0.615942
0.684397
0.735657
0.762585
0.783024
0.767452
0.657145
0.536456
0.409928
0.30319
0.249659
0.230517
0.249334
0.282751
0.339202
0.407982
0.493956
0.562735
0.602316
0.615293
0.606534
0.593556
0.544567
0.41447
0.285995
0.171146
0.101718
0.062786
0.073493
0.093283
0.136432
0.217865
0.288266
0.378783
0.45178
0.498822
0.51991
0.515044
0.498822
0.413172
0.294106
0.178608
0.093607
0.022232
-0.026432
-0.005993
0.044294
0.093607
0.180879
0.261014
0.350557
0.42907
0.469299
0.469948
0.456322
0.41155
0.290862
0.193857
0.091985
0.011202
-0.047845
-0.071204
-0.066662
-0.050765
-0.011833
0.050134
0.14941
0.242521
0.315519
0.36613
0.373592
0.353153
0.302541
0.175689
0.059866
-0.052387
-0.123762
-0.149716
-0.128304
-0.083532
-0.032272
0.031641
0.093607
0.173742
0.239277
0.301892
0.352504
0.373592
0.36321
0.276587
0.174391
0.078035
0.001793
-0.041032
-0.049791
-0.015402
0.024503
0.063435
0.130268
0.202292
0.2834
0.360939
0.41447
0.468001
0.538403
0.547812
0.447238
0.348935
0.25193
0.184448
0.160765
0.187692
0.227598
0.261987
0.332389
0.427123
0.531914
0.609454
0.660065
0.692508
0.702241
0.712623
0.689913
0.594205
0.512124
0.438478
0.383
0.365157
0.380729
0.403764
0.438803
0.517639
0.60848
0.741822
0.850506
0.911824
0.935183
0.937454
0.938752
0.853426
0.746688
0.64287
0.565655
0.497849
0.46573
0.482601
0.532239
0.59453
0.708405
0.83104
0.940374
1.013046
1.051654
1.063009
1.063982
1.044841
0.930316
0.840449
0.742146
0.672718
0.641572
0.650981
0.692184
0.746364
0.812548
0.899171
1.00234
1.07112
1.108429
1.141521
1.149632
1.150605
1.106483
1.018237
0.941347
0.876461
0.823578
0.797299
0.81709
0.87419
0.945889
1.039325
1.126273
1.226198
1.312172
1.381925
1.418262
1.434808
1.442594
1.37641
1.303413
1.221007
1.160663
1.115891
1.105834
1.172018
1.247935
1.315092
1.407231
1.493205
1.579504
1.640173
1.663856
1.646986
1.612921
1.555172
1.438052
1.326772
1.234958
1.175587
1.135682
1.124975
1.151254
1.186942
1.223603
1.277458
1.349482
1.416964
1.454598
1.517538
1.547061
1.553225
1.492232
1.362784
1.242744
1.132113
1.055223
1.013371
1.015642
1.041596
1.071769
1.136006
1.203163
1.286542
1.346238
1.386143
1.403013
1.401716
1.399769
1.336505
1.244691
1.143792
1.040299
0.958866
0.910202
0.916366
0.941671
0.98839
1.064307
1.152228
1.236255
1.282
1.301791
1.283947
1.282325
1.257992
1.153525
1.055871
0.943294
0.854399
0.796326
0.790811
0.820334
0.873216
0.937778
1.0111
1.094479
1.163258
1.200244
1.225874
1.211599
1.189213
1.122704
0.987092
0.86835
0.775887
0.722031
0.709054
0.747661
0.796326
0.843693
0.910526
0.972492
1.051654
1.114594
1.145739
1.162285
1.180778
1.170071
1.089288
0.978981
0.871594
0.783349
0.729818
0.699646
0.729169
0.776536
0.829743
0.898522
0.981252
1.075013
1.152876
1.194404
1.198621
1.18824
1.153525
1.031863
0.924152
0.827472
0.763234
0.710676
0.696726
0.707107
0.756097
0.799246
0.860564
0.966977
1.093505
1.190511
1.243393
1.238526
1.212247
1.136655
1.001042
0.883923
0.782376
0.717814
0.682451
0.693481
0.721058
0.776536
0.858293
0.935832
1.034135
1.121731
1.17948
1.189537
1.202839
1.184022
1.098372
0.994554
0.889438
0.802166
0.753501
0.730467
0.762585
0.809303
0.854724
0.929343
1.003638
1.092532
1.163258
1.211274
1.215492
1.215167
1.185969
1.073391
0.968275
0.860239
0.78562
0.725276
0.709054
0.712298
0.746364
0.789513
0.862186
0.976061
1.075986
1.136655
1.174289
1.171694
1.17364
1.12238
1.003962
0.888789
0.783024
0.701268
0.660714
0.674664
0.703214
0.753501
0.838502
0.908904
0.995852
1.072417
1.140548
1.187591
1.220683
1.217114
1.137304
1.015966
0.889114
0.784322
0.72268
0.695103
0.716192
0.747337
0.785295
0.853426
0.931614
1.017588
1.086044
1.135682
1.156121
1.175587
1.155796
1.040948
0.935832
0.825849
0.733386
0.690886
0.686993
0.709703
0.768101
0.832338
0.91085
0.99942
1.083773
1.1253
1.155148
1.14801
1.127571
1.04549
0.929343
0.836231
0.756421
0.711649
0.685371
0.684722
0.702241
0.744417
0.818712
0.8969
0.98547
1.061711
1.111349
1.134059
1.15677
1.146712
1.052952
0.940374
0.832338
0.742146
0.69121
0.655847
0.685046
0.734684
0.793082
0.875487
0.961462
1.038677
1.08799
1.116216
1.123353
1.129193
1.101941
0.988065
0.884247
0.769723
0.661687
0.58869
0.575713
0.595179
0.665905
0.755448
0.848884
0.9394
1.02797
1.083773
1.124651
1.133086
1.144441
1.080204
0.955946
0.844342
0.748635
0.686019
0.641248
0.641572
0.652927
0.692832
0.774914
0.860888
0.950431
1.02797
1.08215
1.105185
1.120109
1.098696
0.993581
0.885869
0.785944
0.704188
0.658118
0.623729
0.651954
0.692184
0.748635
0.835582
0.928694
1.024402
1.093181
1.13114
1.132762
1.126598
1.071444
0.938427
0.818712
0.718138
0.656496
0.623729
0.634435
0.660065
0.713272
0.782051
0.864457
0.958542
1.038028
1.084746
1.121082
1.124002
1.125949
1.061387
0.948809
0.839151
0.732738
0.655847
0.599396
0.600045
0.628595
0.695103
0.791784
0.894953
0.992607
1.066902
1.106483
1.123029
1.133086
1.099994
0.992283
0.875812
0.762261
0.672718
0.631839
0.616591
0.643194
0.668176
0.70581
0.770047
0.864132
0.964382
1.038028
1.085719
1.095128
1.117838
1.112323
1.018886
0.916041
0.806059
0.730142
0.676935
0.66266
0.673042
0.726249
0.800544
0.892033
0.981577
1.040623
1.063333
1.087341
1.086692
1.098372
1.040299
0.936156
0.833636
0.748959
0.69997
0.6685
0.670122
0.693481
0.727871
0.793731
0.872568
0.962111
1.035432
1.082475
1.106158
1.127571
1.103563
0.985145
0.873216
0.766478
0.683424
0.64287
0.629893
0.664607
0.710676
0.778482
0.852777
0.942969
1.018886
1.072417
1.114269
1.116216
1.112323
1.06528
0.952053
0.851804
0.754799
0.675962
0.627297
0.609129
0.615293
0.663958
0.735982
0.827147
0.941996
1.035757
1.095777
1.140873
1.148659
1.154823
1.086368
0.983523
0.860888
0.752203
0.680828
0.638004
0.651954
0.676286
0.713921
0.783349
0.879056
0.988065
1.073066
1.117513
1.117189
1.112971
1.079879
0.968275
0.853751
0.768101
0.689264
0.647736
0.63995
0.675638
0.712298
0.768425
0.833636
0.913122
0.984172
1.046463
1.102265
1.114918
1.108429
1.057169
0.938427
0.839476
0.742146
0.654225
0.603289
0.590637
0.613996
0.686344
0.793406
0.893656
1.006233
1.08799
1.114269
1.134384
1.143468
1.140224
1.066902
0.961786
0.842071
0.745066
0.675313
0.633786
0.655198
0.698023
0.755123
0.839476
0.917015
0.99131
1.058791
1.107132
1.135682
1.148983
1.125949
1.00818
0.890411
0.792757
0.698997
0.636706
0.619511
0.644817
0.688939
0.760963
0.850182
0.94524
1.027646
1.097399
1.142819
1.140224
1.13114
1.088639
0.975412
0.868674
0.774914
0.702565
0.661363
0.662011
0.674015
0.731764
0.824552
0.913122
1.007531
1.077933
1.113945
1.131464
1.1253
1.125624
1.05652
0.953027
0.832662
0.74539
0.691535
0.657794
0.674989
0.711974
0.745066
0.807357
0.883274
0.968924
1.051654
1.097723
1.122704
1.133086
1.10778
0.97963
0.846937
0.724951
0.635408
0.600045
0.602965
0.64287
0.678557
0.729818
0.795353
0.882949
0.972492
1.04841
1.098372
1.112971
1.114918
1.074364
0.952053
0.833311
0.726898
0.647088
0.599721
0.620809
0.650332
0.70581
0.786593
0.864781
0.959515
1.036406
1.076635
1.091234
1.083448
1.061711
0.971844
0.863483
0.755772
0.694779
0.658767
0.640923
0.662985
0.698023
0.7256
0.78854
0.853102
0.941347
1.015317
1.057818
1.077608
1.083448
1.051978
0.935507
0.837529
0.738577
0.654225
0.609454
0.594854
0.624053
0.656172
0.71684
0.795353
0.895278
0.981252
1.04257
1.076635
1.064631
1.039974
0.987092
0.872568
0.783024
0.704188
0.641572
0.613347
0.612698
0.630217
0.670447
0.731115
0.79146
0.882949
0.976386
1.032512
1.063333
1.062684
1.052627
0.958542
0.8398
0.713272
0.613022
0.548785
0.516666
0.554625
0.616915
0.68018
0.76583
0.846937
0.929343
1.001367
1.042894
1.06528
1.075986
1.051329
0.925125
0.815468
0.717814
0.637679
0.592908
0.583499
0.6114
0.642546
0.692508
0.746039
0.818712
0.885869
0.938752
0.979954
1.005909
1.021806
0.989687
0.885545
0.798273
0.711325
0.636706
0.592259
0.589988
0.618862
0.664931
0.747337
0.812223
0.905335
0.968599
1.008829
1.018886
1.008829
1.00526
0.917664
0.801841
0.690237
0.627622
0.599072
0.58285
0.617889
0.664931
0.712947
0.787891
0.855048
0.923179
0.988714
1.031863
1.047761
1.055223
1.038352
0.928694
0.816116
0.711001
0.625675
0.573442
0.557544
0.586419
0.63119
0.691535
0.754799
0.846937
0.92837
0.99131
1.032837
1.02797
1.014669
0.960164
0.845964
0.741173
0.643519
0.578633
0.543269
0.553327
0.58577
0.621133
0.68829
0.775238
0.892682
0.984496
1.047761
1.080853
1.097399
1.089288
0.993581
0.866403
0.73728
0.634435
0.576686
0.56014
0.600694
0.644168
0.698023
0.779131
0.852777
0.951404
1.033486
1.076311
1.096101
1.09967
1.076959
0.95692
0.849208
0.739551
0.653901
0.590961
0.577984
0.597125
0.633137
0.687317
0.764207
0.866403
0.951404
1.00234
1.044192
1.053925
1.045165
0.983523
0.887167
0.79438
0.701917
0.636381
0.598423
0.616915
0.638977
0.678557
0.738902
0.817414
0.928694
1.009802
1.053276
1.066253
1.068524
1.039974
0.939725
0.82812
0.735009
0.664282
0.641572
0.638977
0.672393
0.714894
0.759665
0.82812
0.890411
0.956271
1.024402
1.079879
1.100643
1.113945
1.093505
0.960164
0.834933
0.727222
0.658118
0.629244
0.634435
0.651305
0.693481
0.747337
0.81709
0.905335
0.985145
1.039325
1.08507
1.09091
1.078906
0.994878
0.86251
0.756097
0.668176
0.607183
0.586094
0.601343
0.628271
0.672718
0.760963
0.855697
0.962435
1.037703
1.081826
1.104861
1.113945
1.092532
0.998123
0.887167
0.771345
0.680828
0.63411
0.6114
0.635408
0.6685
0.712298
0.796975
0.886843
0.978981
1.047436
1.09091
1.100643
1.103563
1.068524
0.948809
0.849208
0.758692
0.6831
0.626973
0.600045
0.581228
0.612049
0.657794
0.736306
0.853102
0.983523
1.070795
1.123029
1.111998
1.094803
1.018562
0.901766
0.793731
0.69997
0.643194
0.615942
0.635408
0.659092
0.692832
0.764532
0.833636
0.92253
0.990336
1.037703
1.060413
1.082799
1.067875
0.975412
0.869323
0.770047
0.687317
0.637355
0.598098
0.610427
0.638328
0.686344
0.775238
0.858293
0.946214
1.026997
1.086368
1.110052
1.120109
1.095452
0.979306
0.872568
0.766478
0.690561
0.634435
0.624702
0.63703
0.689913
0.749608
0.820659
0.906633
0.995203
1.054574
1.095128
1.108429
1.116216
1.055871
0.938427
0.825849
0.719436
0.637355
0.596801
0.622106
0.663309
0.712947
0.794055
0.880029
0.979954
1.03381
1.063333
1.070795
1.070795
1.036081
0.945889
0.84564
0.755123
0.662985
0.603614
0.573442
0.60264
0.64579
0.690561
0.771669
0.861212
0.963084
1.047436
1.101941
1.096101
1.077284
1.029917
0.901118
0.819036
0.74831
0.685695
0.650332
0.654874
0.67434
0.741173
0.805086
0.893007
1.003962
1.100643
1.143792
1.173316
1.158392
1.154499
1.074688
0.949782
0.838827
0.745066
0.6831
0.64579
0.66558
0.686993
0.716516
0.780429
0.854724
0.943618
1.00234
1.034783
1.041921
1.075986
1.066902
0.963408
0.862186
0.784971
0.722356
0.677584
0.651954
0.663634
0.675962
0.714245
0.79438
0.881652
0.968599
1.031215
1.079231
1.083448
1.078582
1.045814
0.919935
0.809952
0.706459
0.61724
0.567602
0.561438
0.572468
0.619835
0.678233
0.748959
0.825849
0.8969
0.940698
0.999096
1.011424
1.017913
0.945565
0.830716
0.73144
0.651305
0.595503
0.563709
0.601992
0.651954
0.6831
0.737604
0.80541
0.885869
0.943294
0.974115
0.98547
1.001367
0.981577
0.887816
0.789189
0.694779
0.615293
0.572144
0.547163
0.565331
0.596152
0.664931
0.75999
0.849208
0.926423
0.971844
1.004936
0.995203
0.98839
0.943618
0.848884
0.782376
0.72852
0.662011
0.611076
0.579281
0.571171
0.603289
0.672718
0.76291
0.866728
0.976386
1.025375
1.067227
1.065604
1.063982
0.986443
0.877434
0.774589
0.690886
0.633137
0.601667
0.613347
0.642221
0.6831
0.758043
0.844666
0.937778
0.999096
1.029268
1.034783
1.039325
1.008829
0.907606
0.804112
0.707432
0.62308
0.571495
0.552029
0.592583
0.63411
0.700943
0.777509
0.848235
0.912148
0.953675
0.98839
0.995203
1.000069
0.98255
0.881327
0.778807
0.679206
0.593232
0.539376
0.525101
0.546838
0.589663
0.650007
0.725276
0.838178
0.941023
1.013046
1.069822
1.073391
1.063009
0.982225
0.867701
0.753177
0.666878
0.627622
0.61724
0.652603
0.695103
0.723653
0.756745
0.819361
0.907931
0.983848
1.045165
1.07112
1.086368
1.058791
0.941671
0.821307
0.703539
0.611725
0.560464
0.535483
0.569548
0.615942
0.690886
0.781727
0.887816
0.973466
1.028295
1.056845
1.039974
1.019211
0.971519
0.857319
0.767776
0.696077
0.635084
0.592259
0.59161
0.606209
0.645141
0.698023
0.755123
0.832662
0.911499
0.962111
1.01402
1.050032
1.079231
1.021482
0.917664
0.807681
0.707432
0.627946
0.586743
0.613347
0.655198
0.703863
0.769074
0.854724
0.951729
1.022779
1.064956
1.078582
1.076635
1.04257
0.927721
0.810277
0.709378
0.633137
0.60264
0.596801
0.628919
0.672393
0.734684
0.796651
0.866079
0.928045
0.973141
1.006558
1.007531
1.002989
0.959515
0.844342
0.749284
0.667851
0.602965
0.573117
0.586094
0.615618
0.658443
0.721707
0.801193
0.898198
0.997474
1.049707
1.085719
1.082475
1.065604
0.97087
0.845964
0.729493
0.649359
0.608156
0.590637
0.622755
0.661038
0.695752
0.751879
0.822605
0.895278
0.945889
0.969573
0.996176
1.040623
1.041596
0.944916
0.861537
0.770696
0.694779
0.649359
0.621458
0.650656
0.690886
0.754474
0.824227
0.918961
1.007207
1.078257
1.124975
1.126922
1.103238
1.043219
0.918312
0.814494
0.726898
0.655847
0.617564
0.6114
0.631839
0.667851
0.733062
0.811574
0.913446
0.99942
1.047112
1.087666
1.097723
1.078582
0.97379
0.850182
0.740848
0.659092
0.613022
0.601018
0.63703
0.684397
0.734035
0.80833
0.886843
0.965355
1.031863
1.075986
1.081502
1.08507
1.054898
0.943943
0.825525
0.711649
0.628271
0.586419
0.573766
0.619835
0.678882
0.752528
0.822281
0.903713
0.985794
1.045165
1.082799
1.086044
1.085395
1.040299
0.927072
0.824227
0.72268
0.64871
0.616915
0.619835
0.647412
0.700943
0.778482
0.854399
0.94524
1.03381
1.082475
1.115242
1.117513
1.101616
1.029592
0.92837
0.812872
0.741822
0.711649
0.69997
0.720734
0.740848
0.768425
0.83396
0.913122
1.006233
1.076311
1.112647
1.11946
1.117189
1.087341
0.977683
0.880029
0.796651
0.738902
0.699321
0.674989
0.689913
0.721382
0.779456
0.840449
0.920908
0.99131
1.051005
1.097723
1.111998
1.102914
1.056845
0.941023
0.841098
0.747661
0.672069
0.636706
0.649034
0.679206
0.716192
0.788864
0.854399
0.928694
0.986443
1.022779
1.054249
1.079231
1.106807
1.041596
0.930641
0.804761
0.713272
0.662336
0.640923
0.65455
0.665905
0.687642
0.755123
0.828445
0.904362
0.95984
1.007207
1.04257
1.063333
1.040623
0.922854
0.813521
0.711974
0.642546
0.596801
0.591285
0.61724
0.63995
0.706134
0.788215
0.901766
0.993256
1.056845
1.097074
1.094154
1.079879
1.026024
0.903064
0.79438
0.690886
0.60264
0.553002
0.553976
0.582201
0.62308
0.690237
0.760314
0.854075
0.937129
0.978008
1.007207
1.027321
1.032188
0.952053
0.844666
0.7256
0.638652
0.582526
0.545216
0.557869
0.587717
0.624053
0.703863
0.794704
0.897224
0.972492
1.006233
1.012722
1.016615
0.995852
0.879705
0.772967
0.65974
0.592583
0.563709
0.5689
0.614644
0.668176
0.738253
0.788215
0.853426
0.918961
0.968275
1.005585
1.004611
0.988714
0.950756
0.863808
0.772643
0.676611
0.592259
0.538727
0.529968
0.554949
0.607183
0.718787
0.813521
0.912797
0.986119
1.038028
1.065929
1.069822
1.067875
0.969248
0.851804
0.725924
0.626973
0.559491
0.513422
0.537105
0.598423
0.665905
0.762261
0.865754
0.959515
1.018562
1.043543
1.039001
1.040299
1.009153
0.895927
0.794704
0.701917
0.640923
0.593881
0.576686
0.600045
0.651954
0.725924
0.810601
0.895278
0.972492
1.017264
1.046138
1.04257
1.028944
0.966653
0.852777
0.771994
0.694455
0.627622
0.600045
0.609778
0.640923
0.67434
0.741822
0.817739
0.927397
1.006233
1.051005
1.07112
1.070795
1.047112
0.95108
0.845964
0.737604
0.65455
0.603289
0.575388
0.605236
0.642546
0.694455
0.771994
0.855697
0.936481
0.994554
1.01986
1.020508
1.005909
0.975412
0.862186
0.75707
0.663958
0.60264
0.569224
0.586419
0.626973
0.692508
0.759341
0.816116
0.890736
0.968599
1.030241
1.073715
1.068849
1.059116
1.01402
0.91377
0.828769
0.741497
0.665905
0.618862
0.614644
0.638977
0.679206
0.759665
0.839151
0.94816
1.03381
1.079555
1.095128
1.089612
1.071444
0.968275
0.85959
0.761936
0.681153
0.622431
0.577335
0.576686
0.60848
0.665905
0.747661
0.832014
0.919935
0.989039
1.033161
1.044841
1.063333
1.057818
0.953351
0.844991
0.735333
0.663309
0.616591
0.612373
0.635732
0.695752
0.761288
0.830391
0.911499
0.97963
1.030241
1.076959
1.078582
1.076635
1.010451
0.884896
0.769723
0.660389
0.576686
0.536781
0.572468
0.616915
0.658443
0.737604
0.824227
0.918637
0.993581
1.037703
1.057169
1.082799
1.073066
1.006882
0.921557
0.818712
0.719111
0.650007
0.60848
0.627622
0.670447
0.72268
0.806708
0.891709
0.977035
1.041921
1.089288
1.09967
1.09967
1.061387
0.934534
0.824227
0.709703
0.644817
0.613996
0.62308
0.645141
0.70289
0.760963
0.842071
0.931614
1.014669
1.064307
1.102914
1.101941
1.091559
1.030241
0.91377
0.801517
0.702565
0.624702
0.586743
0.594854
0.619511
0.657469
0.733386
0.812548
0.903713
0.969248
0.997149
1.000718
1.008829
0.995852
0.935183
0.873216
0.797299
0.723653
0.659092
0.607183
0.611725
0.629244
0.66558
0.747013
0.831365
0.925125
0.995527
1.053276
1.069173
1.075013
1.051005
0.944591
0.844991
0.753826
0.693157
0.643519
0.62016
0.623404
0.693157
0.756745
0.833636
0.919935
0.993256
1.035108
1.070146
1.05944
1.046463
0.981577
0.85667
0.742146
0.628919
0.570197
0.579281
0.63119
0.670122
0.716516
0.795677
0.864781
0.954324
1.032512
1.083448
1.101292
1.115242
1.081502
0.985145
0.87127
0.761612
0.672069
0.627622
0.60848
0.640599
0.675962
0.728844
0.81125
0.897549
0.983523
1.043867
1.084746
1.089288
1.084746
1.05944
0.948809
0.848884
0.751555
0.678882
0.629244
0.601667
0.591934
0.628271
0.688939
0.763883
0.858617
0.954
1.018886
1.063982
1.079555
1.087017
1.029917
0.926423
0.824552
0.714894
0.624053
0.572144
0.578308
0.598747
0.640599
0.713921
0.796975
0.887816
0.960164
0.988714
1.016615
1.058142
1.05944
0.964057
0.850182
0.751879
0.675962
0.622106
0.577984
0.593232
0.616591
0.660714
0.728844
0.822605
0.92837
1.004287
1.050681
1.066253
1.077608
1.050032
0.935507
0.826498
0.72852
0.658118
0.612698
0.587392
0.57701
0.613671
0.679206
0.756745
0.837205
0.91961
0.978657
1.04549
1.074364
1.066902
0.981577
0.86543
0.76583
0.672069
0.609129
0.586094
0.617564
0.653901
0.695428
0.754474
0.82293
0.911499
0.998123
1.049383
1.086368
1.105185
1.078906
0.952053
0.818712
0.710027
0.615618
0.571171
0.543594
0.573117
0.628919
0.713272
0.808006
0.893007
0.968924
1.025699
1.072742
1.072742
1.067227
1.026997
0.905011
0.794704
0.701917
0.622106
0.579606
0.583175
0.60264
0.65163
0.707432
0.782051
0.867701
0.941023
0.98255
1.011749
1.006882
1.013046
0.963084
0.853751
0.712298
0.615293
0.568575
0.563384
0.612373
0.664282
0.710676
0.770372
0.835582
0.91669
0.994878
1.043543
1.069173
1.089288
1.069822
0.960489
0.845315
0.725924
0.621133
0.570846
0.54846
0.582201
0.620484
0.686019
0.76291
0.841098
0.929019
0.993581
1.030566
1.029917
1.022779
0.981577
0.879056
0.784971
0.70581
0.647412
0.61432
0.624377
0.642221
0.690886
0.744742
0.809628
0.885869
0.969573
1.016615
1.043219
1.046138
1.052627
0.98547
0.880354
0.783349
0.697374
0.638977
0.610751
0.63995
0.672069
0.70873
0.760963
0.834285
0.927721
1.00234
1.062036
1.099021
1.124002
1.091234
0.963408
0.808655
0.652279
0.532239
0.477734
0.475788
0.540674
0.605885
0.678882
0.769074
0.880029
0.977359
1.040948
1.070146
1.060413
1.059765
1.035108
0.927397
0.815468
0.718138
0.656172
0.625351
0.621782
0.640923
0.702565
0.771345
0.835582
0.91377
0.981252
1.032188
1.082799
1.098048
1.097074
1.013695
0.912148
0.794704
0.694455
0.624377
0.595179
0.611725
0.640923
0.674989
0.74539
0.831365
0.923828
0.990985
1.031539
1.052627
1.066578
1.055547
0.953351
0.852128
0.757394
0.682775
0.636706
0.605885
0.622431
0.663309
0.746688
0.831365
0.923828
1.002016
1.047112
1.063009
1.044841
1.034459
1.012722
0.90274
0.796002
0.69121
0.615942
0.593881
0.609129
0.640923
0.698672
0.772318
0.854724
0.941023
1.019211
1.062036
1.090261
1.088315
1.075986
0.999745
0.897224
0.786269
0.686993
0.601667
0.550407
0.561762
0.595503
0.62308
0.69121
0.77978
0.878083
0.966653
1.046463
1.104536
1.128544
1.114269
1.006233
0.893007
0.784322
0.69997
0.653576
0.648061
0.673691
0.70873
0.765505
0.830391
0.920908
0.999745
1.072417
1.117513
1.112323
1.094479
1.04257
0.906633
0.782376
0.664282
0.584797
0.541647
0.561113
0.60556
0.672718
0.751555
0.818387
0.911499
1.010127
1.06236
1.097399
1.114269
1.103563
1.011749
0.896575
0.781078
0.692508
0.627297
0.601667
0.640275
0.68829
0.73144
0.809303
0.893007
0.980928
1.049383
1.088963
1.101941
1.113945
1.085719
0.966004
0.862835
0.77102
0.691535
0.63703
0.611725
0.629568
0.659416
0.726898
0.813845
0.922854
1.011424
1.067227
1.096101
1.075662
1.066578
1.014993
0.89106
0.780105
0.692184
0.633137
0.605236
0.614969
0.643843
0.686668
0.763559
0.840124
0.918961
1.002989
1.06528
1.107132
1.132437
1.129193
1.040299
0.919286
0.798922
0.705161
0.632164
0.59453
0.615618
0.654874
0.701917
0.800868
0.900793
1.000069
1.066578
1.099021
1.111674
1.116865
1.078906
0.953351
0.844991
0.746364
0.692508
0.665905
0.655523
0.679855
0.701592
0.755448
0.827472
0.910526
0.988714
1.054898
1.103563
1.108429
1.098372
1.046787
0.92253
0.815792
0.718138
0.650007
0.619511
0.626324
0.653901
0.70581
0.782376
0.852453
0.940049
1.007531
1.068849
1.102265
1.1107
1.105834
1.018886
0.91085
0.797299
0.702565
0.635084
0.601992
0.61724
0.652279
0.695103
0.771669
0.862835
0.964382
1.047436
1.084421
1.089288
1.087341
1.045814
0.911499
0.792433
0.688939
0.615293
0.577335
0.586743
0.615618
0.63119
0.695752
0.798273
0.939076
1.044841
1.110376
1.13925
1.124975
1.104212
1.04841
0.922206
0.81417
0.71684
0.648061
0.615293
0.622755
0.629568
0.65163
0.720734
0.77686
0.847262
0.917339
0.973141
1.012398
1.026024
1.036406
0.982225
0.901442
0.806708
0.72268
0.66266
0.636057
0.656172
0.690561
0.722031
0.801193
0.895927
0.990661
1.055223
1.091883
1.104212
1.109727
1.081826
0.961137
0.851804
0.739551
0.673691
0.630542
0.621782
0.637679
0.667202
0.720734
0.799246
0.895602
0.978981
1.034783
1.073066
1.067875
1.057818
1.006233
0.897873
0.800544
0.708405
0.651305
0.626
0.638328
0.659092
0.679206
0.732738
0.790486
0.870945
0.951404
1.015317
1.053925
1.066253
1.062036
0.972168
0.857968
0.74247
0.65455
0.586743
0.546189
0.557544
0.580579
0.61432
0.713272
0.825849
0.944267
1.040299
1.078906
1.099021
1.124002
1.118811
0.996176
0.884572
0.761936
0.673691
0.618213
0.612698
0.649359
0.685695
0.743444
0.80833
0.88522
0.950756
0.988714
1.016291
1.0111
1.00526
0.961137
0.848235
0.736306
0.651954
0.593881
0.559167
0.584797
0.635084
0.688939
0.777834
0.857968
0.968924
1.057818
1.107456
1.121731
1.111998
1.085395
0.997474
0.886194
0.783024
0.701268
0.640599
0.598098
0.604911
0.624377
0.660065
0.728844
0.806384
0.891385
0.978008
1.026997
1.052627
1.083448
1.072742
0.945565
0.827796
0.714894
0.647088
0.612373
0.618862
0.648385
0.692508
0.737928
0.818063
0.918312
1.00234
1.062036
1.118162
1.126598
1.111674
1.032837
0.898847
0.787566
0.687966
0.618213
0.561762
0.559491
0.584472
0.638004
0.726249
0.812223
0.932912
1.019211
1.051978
1.049058
1.047761
1.023428
0.938427
0.842395
0.763234
0.686344
0.635408
0.605236
0.629568
0.659092
0.695428
0.77394
0.860564
0.940374
0.99942
1.035757
1.054898
1.07112
1.05944
0.958542
0.86543
0.761612
0.674989
0.618862
0.610427
0.626973
0.673367
0.740199
0.818063
0.918312
0.999745
1.034783
1.07112
1.087341
1.09383
1.035108
0.918637
0.810277
0.711001
0.644168
0.607507
0.621458
0.661038
0.719111
0.79438
0.867052
0.96276
1.027321
1.056845
1.055223
1.050032
1.027321
0.937778
0.827796
0.749608
0.684073
0.638977
0.600694
0.605885
0.631515
0.672069
0.752528
0.845964
0.943618
1.018237
1.067551
1.078582
1.086368
1.061062
0.932912
0.815143
0.700943
0.624377
0.571495
0.578308
0.613022
0.686344
0.767127
0.850506
0.922854
0.979954
1.030566
1.09383
1.130166
1.150605
1.09967
0.963084
0.83396
0.719111
0.649683
0.621458
0.638328
0.670447
0.721382
0.798597
0.872243
0.963084
1.037054
1.091883
1.111674
1.125624
1.106807
1.014344
0.901442
0.791135
0.696726
0.636057
0.613022
0.638004
0.68018
0.731115
0.811574
0.908904
1.000394
1.054898
1.081826
1.075337
1.082475
1.061711
0.953675
0.864457
0.779131
0.713921
0.672393
0.664931
0.677909
0.730791
0.786269
0.868026
0.967626
1.041272
1.070795
1.095452
1.084097
1.060738
0.990336
0.8969
0.81125
0.713596
0.657145
0.630542
0.628271
0.653576
0.697374
0.779131
0.849533
0.942969
1.013371
1.066253
1.092532
1.103238
1.079879
0.994229
0.890087
0.793082
0.70581
0.636057
0.570846
0.56306
0.570846
0.607183
0.71684
0.845315
0.98839
1.095128
1.137953
1.133735
1.117189
1.062684
0.943294
0.844342
0.756745
0.689264
0.640599
0.633137
0.639301
0.684073
0.731115
0.797299
0.882301
0.96276
1.011749
1.060413
1.058791
1.048734
0.975737
0.858941
0.76291
0.65974
0.59453
0.55722
0.569873
0.592259
0.632813
0.689913
0.77394
0.894629
0.998123
1.058791
1.092532
1.120109
1.094803
0.984172
0.866728
0.756421
0.662336
0.604587
0.575388
0.60264
0.629568
0.665256
0.732413
0.822605
0.926748
1.016291
1.077933
1.091883
1.100967
1.071444
0.958542
0.853102
0.746039
0.658118
0.607831
0.586094
0.576037
0.598747
0.651305
0.733386
0.846937
0.936156
0.985145
1.039325
1.06236
1.064631
0.984172
0.861861
0.759341
0.67726
0.627622
0.589339
0.60264
0.633461
0.674015
0.750257
0.829094
0.903064
0.975737
1.019211
1.041596
1.069173
1.056196
0.961786
0.851155
0.753826
0.666553
0.625351
0.597774
0.61432
0.629893
0.663958
0.725924
0.816116
0.917664
0.990012
1.049707
1.07112
1.068849
1.023753
0.902091
0.80833
0.714894
0.644168
0.589988
0.57409
0.582201
0.626648
0.690237
0.773616
0.875812
0.958866
0.998447
1.026997
1.023753
1.020508
0.94816
0.846289
0.750906
0.658118
0.589988
0.550731
0.561113
0.583823
0.634759
0.710352
0.788215
0.880354
0.951729
1.011749
1.058791
1.094154
1.072742
0.933561
0.787242
0.646763
0.536456
0.504013
0.515693
0.562411
0.60556
0.649359
0.706134
0.793406
0.884572
0.950107
0.998447
1.010127
1.006882
0.966328
0.856022
0.764856
0.678233
0.618213
0.601343
0.612049
0.628595
0.65163
0.676935
0.725276
0.801841
0.890411
0.967302
1.01986
1.04549
1.056845
0.986443
0.867377
0.756421
0.670771
0.61432
0.584148
0.600369
0.636706
0.682126
0.760314
0.839476
0.926748
0.992932
1.028944
1.052303
1.072093
1.051654
0.938103
0.816765
0.703539
0.600369
0.550407
0.56014
0.621458
0.65455
0.70581
0.777834
0.873216
0.965355
1.030241
1.07404
1.079879
1.080528
1.03089
0.89982
0.782376
0.673367
0.590961
0.543269
0.532888
0.576686
0.659416
0.755772
0.840773
0.926099
0.9965
1.033161
1.060738
1.064307
1.075013
1.008504
0.909877
0.800544
0.696726
0.614969
0.571819
0.591934
0.625026
0.671744
0.748959
0.838502
0.935507
1.007531
1.059116
1.077284
1.085395
1.046463
0.926748
0.803464
0.692508
0.596152
0.556571
0.546189
0.576362
0.605236
0.643843
0.697699
0.781727
0.871594
0.960164
1.035108
1.073715
1.087017
1.052952
0.954973
0.866403
0.767452
0.702241
0.66558
0.652279
0.660714
0.700294
0.765505
0.84272
0.939076
1.024726
1.065604
1.099345
1.10778
1.105834
1.028619
0.922854
0.809952
0.713596
0.638328
0.579281
0.575713
0.597774
0.649359
0.732089
0.83104
0.937778
1.01986
1.061711
1.083448
1.097074
1.074688
0.971519
0.870621
0.772967
0.685695
0.638328
0.616591
0.637355
0.668176
0.724951
0.796326
0.881976
0.963408
1.023104
1.053925
1.047761
1.043867
1.009802
0.889114
0.781727
0.681153
0.608805
0.577659
0.589014
0.614969
0.677909
0.763234
0.858617
0.960164
1.043219
1.098372
1.130491
1.134708
1.12238
1.026348
0.901118
0.779131
0.679206
0.636057
0.627622
0.657794
0.690237
0.730142
0.797299
0.879056
0.969248
1.034135
1.06528
1.066253
1.054574
1.017913
0.915717
0.827796
0.737604
0.67142
0.628919
0.612049
0.619186
0.638652
0.678882
0.757719
0.867701
0.979306
1.059116
1.096101
1.103563
1.110052
1.07112
0.949458
0.852453
0.773616
0.707756
0.67142
0.669473
0.67434
0.713596
0.775887
0.848235
0.945889
1.026673
1.075337
1.102914
1.110376
1.09967
1.017913
0.916041
0.814819
0.72852
0.667851
0.632164
0.649034
0.692832
0.742795
0.827796
0.918961
1.013046
1.075013
1.101292
1.092208
1.1107
1.117838
1.041272
0.967302
0.864457
0.753501
0.678882
0.644492
0.660065
0.693157
0.754799
0.815468
0.892358
0.957569
1.005585
1.064307
1.104861
1.134384
1.117838
0.993905
0.861537
0.749608
0.678882
0.661687
0.67726
0.698023
0.736306
0.81125
0.879381
0.967626
1.043543
1.090586
1.113945
1.12822
1.12822
1.05652
0.954324
0.84564
0.750257
0.672718
0.614969
0.625351
0.651954
0.689264
0.760639
0.845315
0.941347
1.027646
1.094154
1.131464
1.161636
1.144117
1.023753
0.893656
0.770047
0.665905
0.609778
0.593881
0.622106
0.656496
0.719436
0.793406
0.884896
0.962435
1.018237
1.057169
1.05944
1.049383
0.996825
0.885545
0.790162
0.70289
0.63119
0.591285
0.585121
0.598747
0.642546
0.731764
0.812548
0.912148
0.990661
1.024077
1.029268
1.009478
1.003314
0.909877
0.80249
0.686668
0.602965
0.554949
0.520235
0.542621
0.600694
0.664931
0.761288
0.842071
0.917015
0.977683
1.021806
1.051654
1.072742
1.052303
0.940374
0.841747
0.742146
0.664607
0.606858
0.582201
0.601343
0.626
0.676935
0.743768
0.838827
0.940049
1.015966
1.0536
1.04841
1.054898
0.993905
0.867052
0.756421
0.661363
0.59453
0.552029
0.545865
0.573442
0.630217
0.712623
0.806384
0.924152
1.015642
1.057494
1.073715
1.059116
1.042245
0.954973
0.852128
0.762585
0.687966
0.636381
0.609778
0.626648
0.655523
0.699321
0.768101
0.850182
0.934534
1.008504
1.054574
1.054249
1.054249
1.028619
0.898198
0.773291
0.648061
0.551705
0.506933
0.505311
0.536781
0.600045
0.703539
0.824227
0.937778
1.017913
1.059116
1.097723
1.101292
1.097723
1.031863
0.912797
0.812223
0.717165
0.643194
0.597774
0.605236
0.630217
0.66558
0.743444
0.826174
0.923828
1.000718
1.056845
1.068849
1.052952
1.014993
0.923828
0.824227
0.715218
0.637355
0.593556
0.559167
0.578633
0.625026
0.675313
0.764207
0.848235
0.943618
1.015966
1.060089
1.064631
1.06528
1.039974
0.925774
0.825525
0.712623
0.606534
0.536456
0.518288
0.536132
0.588041
0.658118
0.764532
0.874514
0.959191
1.015317
1.061711
1.076635
1.078906
1.015642
0.894304
0.795028
0.712298
0.653576
0.617564
0.616915
0.615293
0.622755
0.685695
0.751879
0.847262
0.922206
0.966977
0.98839
0.995852
0.975412
0.869972
0.751879
0.647088
0.570846
0.541647
0.541972
0.602316
0.638328
0.687966
0.779456
0.873216
0.966977
1.026348
1.037054
1.018237
1.002016
0.978981
0.874514
0.791135
0.704836
0.635084
0.58869
0.578957
0.595827
0.640275
0.703539
0.780753
0.872568
0.94816
1.006558
1.056196
1.069173
1.064631
0.998771
0.879705
0.775887
0.683424
0.611076
0.567602
0.58285
0.619835
0.647736
0.736306
0.814819
0.911824
0.985145
1.033486
1.064307
1.078582
1.049058
0.960164
0.857319
0.751555
0.663634
0.592908
0.543594
0.565006
0.60264
0.659416
0.74247
0.824552
0.914419
0.984496
1.033486
1.067551
1.092208
1.076959
0.963408
0.850182
0.717814
0.617564
0.560789
0.543918
0.548785
0.602965
0.669473
0.743444
0.853426
0.958542
1.02797
1.084746
1.091559
1.098048
1.030566
0.884896
0.750257
0.63119
0.562735
0.553976
0.598423
0.644492
0.685371
0.747013
0.822605
0.920259
1.010127
1.068849
1.08507
1.095777
1.071444
0.979306
0.880678
0.776211
0.694779
0.65455
0.612698
0.639626
0.671744
0.723005
0.805735
0.883923
0.965679
1.034459
1.068849
1.067875
1.072742
1.048734
0.934534
0.832014
0.727871
0.644168
0.60556
0.597774
0.607831
0.65163
0.713272
0.800544
0.901118
0.989039
1.029592
1.066578
1.066578
1.062036
0.995527
0.883598
0.791135
0.704512
0.635732
0.604587
0.626324
0.657469
0.697374
0.758368
0.807681
0.878732
0.931614
0.976386
1.014344
1.055223
1.05652
0.971195
0.857644
0.747337
0.653576
0.601992
0.567602
0.589014
0.622755
0.662985
0.744417
0.835258
0.936805
1.003962
1.04549
1.066902
1.079879
1.059116
0.953351
0.863483
0.773616
0.699321
0.655523
0.637355
0.635732
0.673691
0.726573
0.801517
0.891709
0.975737
1.023428
1.0536
1.048734
1.047436
0.990012
0.884896
0.802166
0.726573
0.669798
0.635408
0.659092
0.688615
0.736955
0.817414
0.881976
0.940049
0.992283
1.02797
1.054898
1.096101
1.105509
1.023104
0.91085
0.792433
0.692832
0.638328
0.607831
0.633461
0.664282
0.698997
0.775563
0.855373
0.943618
1.004287
1.040948
1.038677
1.038028
1.012398
0.909228
0.82812
0.747337
0.680504
0.638977
0.645141
0.661038
0.709703
0.76583
0.837853
0.932587
1.014993
1.066902
1.103887
1.104536
1.1107
1.051978
0.934858
0.839476
0.750581
0.690237
0.658443
0.676611
0.711649
0.758043
0.835907
0.922206
1.021157
1.093181
1.13633
1.157419
1.169423
1.146712
1.044841
0.928045
0.815792
0.731764
0.68829
0.659092
0.67726
0.707756
0.767127
0.849857
0.941996
1.03089
1.106158
1.160987
1.162934
1.144117
1.104861
0.990012
0.904362
0.819361
0.738253
0.688939
0.681477
0.684722
0.732738
0.80541
0.881976
0.960489
1.034459
1.067875
1.087341
1.079879
1.072093
0.998771
0.900469
0.805735
0.721707
0.659416
0.622755
0.652603
0.694455
0.749284
0.816116
0.884247
0.982874
1.058791
1.092857
1.11362
1.120109
1.099021
0.994229
0.885545
0.7827
0.696401
0.650981
0.618213
0.646763
0.67434
0.740848
0.832662
0.923179
0.99942
1.059765
1.10259
1.104861
1.105185
1.07112
0.952053
0.846289
0.743119
0.652279
0.607831
0.605885
0.628595
0.684397
0.747986
0.827796
0.915717
0.995852
1.044192
1.088639
1.088963
1.082475
1.004287
0.889114
0.782376
0.682126
0.609778
0.5689
0.594854
0.639301
0.690561
0.764856
0.841098
0.930316
0.990985
1.021157
1.035432
1.03965
1.009478
0.903713
0.80541
0.721382
0.656821
0.629893
0.608156
0.624377
0.634759
0.681153
0.746364
0.832338
0.934534
1.016615
1.061711
1.063333
1.059116
1.02797
0.928045
0.834933
0.729818
0.613022
0.542296
0.540025
0.571171
0.629893
0.704836
0.803139
0.910526
1.003962
1.06528
1.116216
1.12238
1.114594
1.032837
0.927397
0.819036
0.71976
0.650981
0.601992
0.606209
0.629244
0.679531
0.758043
0.835582
0.925125
0.991958
1.033161
1.052952
1.069822
1.047436
0.943943
0.8398
0.746039
0.669473
0.632164
0.615942
0.638004
0.656821
0.708405
0.772643
0.860888
0.94524
1.003638
1.045814
1.040299
1.032188
0.998771
0.897224
0.810277
0.723005
0.65163
0.60848
0.595827
0.601667
0.635084
0.691535
0.780429
0.882301
0.968275
1.023428
1.071769
1.08507
1.079879
1.000069
0.896575
0.798273
0.710352
0.655198
0.61432
0.609129
0.621782
0.666229
0.743768
0.820659
0.895927
0.958542
1.013371
1.039325
1.051329
1.02797
0.932587
0.843044
0.756421
0.689264
0.646439
0.623729
0.625675
0.633461
0.676611
0.742146
0.840449
0.9394
1.026673
1.08507
1.086044
1.072417
1.034459
0.916366
0.810277
0.729169
0.670122
0.64287
0.64579
0.649359
0.691859
0.761936
0.830067
0.929343
1.018237
1.068524
1.09091
1.076959
1.054898
0.95984
0.856995
0.756421
0.676935
0.62016
0.595179
0.612698
0.651305
0.690561
0.768425
0.855048
0.952702
1.019535
1.053925
1.072742
1.088315
1.064307
0.94816
0.836556
0.73728
0.661687
0.613347
0.592583
0.613022
0.649034
0.713272
0.783349
0.875812
0.958218
1.015966
1.055223
1.058142
1.049383
1.013695
0.917015
0.841747
0.765181
0.692184
0.643843
0.623729
0.609778
0.634759
0.708405
0.798273
0.903389
0.9965
1.054574
1.098696
1.111674
1.098372
0.9965
0.860564
0.723005
0.625351
0.566304
0.546514
0.580579
0.638004
0.692184
0.764207
0.844342
0.937454
1.01694
1.049707
1.063658
1.072417
1.057169
0.954
0.855697
0.741497
0.651954
0.608156
0.587717
0.603938
0.634435
0.707432
0.790486
0.886843
0.955946
1.028295
1.076959
1.079879
1.063333
1.020184
0.897224
0.799246
0.717165
0.65974
0.640275
0.657145
0.6831
0.721707
0.768101
0.817739
0.892033
0.962111
1.013695
1.065604
1.097074
1.094154
1.008504
0.897873
0.790162
0.693806
0.630866
0.597125
0.624702
0.660065
0.696077
0.772643
0.852128
0.9394
1.003962
1.041921
1.056845
1.066253
1.039974
0.913122
0.795353
0.685046
0.60556
0.56014
0.546189
0.581877
0.613022
0.67142
0.727222
0.791135
0.878407
0.956271
1.0111
1.030566
1.034459
1.009802
0.914744
0.821632
0.726573
0.638652
0.594205
0.601992
0.627946
0.682451
0.763883
0.832662
0.914419
0.984496
1.023104
1.049058
1.05652
1.064307
0.984821
0.881003
0.780753
0.690886
0.636381
0.608156
0.638328
0.678882
0.724951
0.779456
0.847911
0.917988
0.97379
1.018237
1.043219
1.056196
1.031863
0.923828
0.832987
0.741497
0.667202
0.624702
0.612373
0.632164
0.655198
0.710676
0.783673
0.873541
0.94816
1.006882
1.041596
1.039001
1.025699
0.979306
0.860888
0.779131
0.705161
0.644817
0.596801
0.583175
0.578308
0.603289
0.67726
0.760639
0.877434
0.98255
1.045165
1.067551
1.050032
1.031215
0.953675
0.843044
0.733062
0.6831
0.664931
0.650656
0.656172
0.674664
0.70289
0.776536
0.866728
0.955298
1.032837
1.07404
1.081502
1.070146
1.014344
0.86251
0.736955
0.642221
0.581552
0.565655
0.587068
0.64579
0.692832
0.763559
0.834609
0.91669
0.988714
1.033161
1.066253
1.059116
1.055547
1.019211
0.912148
0.811574
0.717814
0.650332
0.622431
0.63411
0.661363
0.697699
0.774914
0.843044
0.929992
1.003638
1.058142
1.083448
1.088639
1.078257
0.980928
0.871594
0.763883
0.678233
0.624053
0.598747
0.625026
0.678233
0.725924
0.809628
0.89398
0.987092
1.036406
1.051654
1.048085
1.0536
1.041272
0.923179
0.816116
0.698023
0.61724
0.571819
0.56598
0.58577
0.621133
0.701917
0.79957
0.90566
0.996825
1.073066
1.12238
1.109078
1.073391
0.994554
0.884247
0.80541
0.721707
0.652603
0.612698
0.597125
0.605236
0.620809
0.683424
0.763883
0.849857
0.917015
0.976061
1.022779
1.076959
1.11946
1.047436
0.926423
0.804437
0.713596
0.650656
0.622431
0.656821
0.704512
0.754474
0.832987
0.913122
0.998771
1.073066
1.117838
1.132437
1.124002
1.086692
0.965031
0.86835
0.769723
0.690237
0.639301
0.626
0.645141
0.685046
0.74247
0.814819
0.917339
1.005909
1.068849
1.108429
1.109727
1.103238
1.041596
0.910202
0.805086
0.723653
0.65974
0.631839
0.657145
0.689264
0.727871
0.79146
0.864132
0.963733
1.042245
1.087341
1.114594
1.121731
1.103887
1.00526
0.897549
0.801517
0.720085
0.672069
0.638977
0.667202
0.700619
0.737604
0.803464
0.879705
0.951729
1.009478
1.041272
1.046138
1.050356
1.031215
0.942645
0.853426
0.768425
0.711001
0.658118
0.637355
0.646439
0.691535
0.754474
0.830716
0.917339
0.993905
1.042245
1.097723
1.116865
1.115567
1.065604
0.954973
0.866079
0.772643
0.705485
0.669798
0.67434
0.69997
0.74831
0.82812
0.898847
0.983523
1.054249
1.094803
1.111674
1.129517
1.11362
1.012722
0.898847
0.794704
0.713596
0.654225
0.611725
0.61432
0.634435
0.671744
0.756745
0.865754
0.984172
1.077608
1.126598
1.134708
1.1253
1.081826
0.953675
0.843693
0.754474
0.693481
0.650332
0.644817
0.667527
0.720734
0.786593
0.866403
0.955622
1.043543
1.100967
1.149632
1.143468
1.134384
1.076959
0.962111
0.870297
0.777834
0.705161
0.664931
0.676286
0.698672
0.718138
0.779131
0.853426
0.944267
1.022455
1.082475
1.119784
1.143792
1.124327
1.042894
0.939076
0.83396
0.746688
0.699646
0.664282
0.688615
0.722356
0.765505
0.852777
0.929992
1.009153
1.065604
1.088315
1.08215
1.078582
1.041596
0.916366
0.81709
0.730142
0.667202
0.635408
0.644492
0.673367
0.723005
0.771669
0.84272
0.939076
1.044192
1.111674
1.147686
1.137304
1.119136
1.051978
0.936805
0.843693
0.763559
0.686019
0.641248
0.641248
0.648385
0.673042
0.742146
0.838502
0.958866
1.040299
1.086368
1.105185
1.129193
1.126922
1.055223
0.96276
0.860564
0.76583
0.705485
0.65974
0.669473
0.709703
0.764856
0.832662
0.907282
0.995852
1.075013
1.120433
1.126273
1.125949
1.092208
0.982874
0.88522
0.784971
0.719111
0.682775
0.669798
0.6685
0.689264
0.735333
0.796002
0.883923
0.97087
1.032512
1.08215
1.08507
1.079555
1.014344
0.911499
0.820983
0.738902
0.675638
0.645141
0.65974
0.679206
0.719436
0.793406
0.87127
0.958542
1.041272
1.096101
1.129517
1.143144
1.112971
1.008504
0.893656
0.781727
0.703539
0.661687
0.630217
0.65455
0.679206
0.728195
0.809628
0.913446
1.018237
1.073715
1.105509
1.099994
1.097723
1.06236
0.937778
0.829094
0.733711
0.665905
0.631839
0.630217
0.657469
0.709703
0.763234
0.835582
0.916366
0.997798
1.049707
1.091883
1.097399
1.099994
1.033486
0.920259
0.810277
0.697699
0.622431
0.59161
0.622431
0.666553
0.711001
0.766478
0.814819
0.876785
0.941671
0.993581
1.050032
1.110052
1.112647
1.014669
0.895602
0.783349
0.708081
0.667851
0.641248
0.656821
0.668825
0.711974
0.799246
0.898847
1.003314
1.070795
1.106158
1.098696
1.091234
1.05652
0.952053
0.861212
0.765505
0.691535
0.651305
0.638328
0.623404
0.658767
0.724627
0.815143
0.91377
1.017588
1.079879
1.133735
1.138926
1.124327
1.039974
0.913446
0.803464
0.714245
0.652603
0.628919
0.678557
0.720409
0.769398
0.833636
0.903389
0.987741
1.056845
1.086368
1.100967
1.114594
1.103563
1.005585
0.892033
0.790811
0.712947
0.672069
0.651305
0.679855
0.70581
0.753177
0.823254
0.898522
0.978008
1.035757
1.076311
1.074688
1.066902
1.031539
0.917015
0.821956
0.721707
0.634759
0.591285
0.586094
0.59161
0.624702
0.672069
0.745066
0.850182
0.94816
1.00526
1.052303
1.079879
1.091559
1.024402
0.919286
0.81417
0.713272
0.647736
0.610751
0.632813
0.670771
0.717165
0.78562
0.858293
0.957893
1.041596
1.095777
1.123353
1.137304
1.091883
0.966328
0.861537
0.779131
0.716192
0.664282
0.629244
0.647736
0.663634
0.720409
0.802815
0.906308
0.993905
1.058467
1.097723
1.098696
1.08507
1.055871
0.941023
0.818387
0.704512
0.618538
0.592259
0.599072
0.617564
0.662336
0.726249
0.801841
0.903064
0.992932
1.047436
1.082475
1.081826
1.081177
1.003962
0.881976
0.767776
0.673691
0.600694
0.567926
0.593232
0.633137
0.678882
0.74539
0.813197
0.890411
0.958542
1.002989
1.023753
1.036406
1.01986
0.919935
0.821632
0.741822
0.695428
0.655523
0.632164
0.66558
0.679855
0.713272
0.753501
0.809303
0.859915
0.902091
0.933236
0.952053
0.990661
0.992283
0.897224
0.818063
0.738253
0.663634
0.627297
0.624702
0.63411
0.679531
0.743444
0.816765
0.903389
0.986767
1.039325
1.082475
1.078906
1.055547
0.956595
0.835258
0.732413
0.65163
0.574415
0.535483
0.550731
0.580904
0.625351
0.703214
0.804112
0.913446
0.997149
1.041921
1.055223
1.052303
1.02797
0.929019
0.839151
0.75415
0.68018
0.637355
0.61724
0.637355
0.666553
0.712623
0.772643
0.863808
0.941347
0.998771
1.040299
1.038352
1.028619
0.990661
0.880354
0.778158
0.680504
0.588365
0.519262
0.490063
0.49136
0.546189
0.641572
0.738577
0.849533
0.92837
0.969573
1.005585
1.016291
1.022455
0.9394
0.83396
0.729493
0.647412
0.589014
0.586743
0.620809
0.658443
0.68829
0.756097
0.832662
0.916041
0.983523
1.023753
1.038028
1.046138
1.018562
0.902091
0.795677
0.694779
0.618862
0.57993
0.566953
0.603289
0.65455
0.737928
0.821956
0.906633
0.965031
0.993905
1.009153
1.005585
1.009478
0.986767
0.887816
0.793731
0.70289
0.627946
0.584472
0.582201
0.589339
0.61432
0.667851
0.727547
0.815792
0.90566
0.971844
1.033161
1.055871
1.047112
0.974115
0.876136
0.775238
0.670771
0.580579
0.528021
0.548136
0.60264
0.656496
0.750906
0.844666
0.937778
1.004936
1.061387
1.076635
1.081177
1.047112
0.923179
0.821307
0.723329
0.649359
0.612373
0.617889
0.646763
0.69413
0.76583
0.836231
0.92253
0.993581
1.045165
1.066253
1.046463
1.002989
0.94524
0.83104
0.766478
0.70581
0.663309
0.636057
0.621782
0.622755
0.657794
0.731764
0.807681
0.898522
0.981577
1.031863
1.065604
1.081826
1.074364
0.9965
0.883598
0.774914
0.682451
0.614969
0.579606
0.599396
0.636057
0.679531
0.756097
0.832338
0.916041
0.976061
1.000718
1.002989
1.006882
0.996825
0.903713
0.829418
0.734035
0.638977
0.573766
0.560789
0.585121
0.624053
0.691535
0.761936
0.847262
0.925774
0.989039
1.02505
1.030566
1.031863
0.997474
0.876461
0.773291
0.680504
0.613022
0.58869
0.611076
0.634759
0.652927
0.696401
0.75123
0.840449
0.930641
1.019535
1.080528
1.088315
1.075662
0.989687
0.881652
0.769398
0.661038
0.589988
0.567602
0.601667
0.646439
0.692184
0.776536
0.865106
0.955622
1.024402
1.051654
1.06528
1.084097
1.069498
0.956595
0.849208
0.738902
0.649034
0.596476
0.592259
0.618538
0.639626
0.693157
0.774265
0.872243
0.955946
1.01694
1.052303
1.052627
1.045814
1.004936
0.890411
0.792757
0.698348
0.626973
0.589988
0.585446
0.60556
0.647088
0.7256
0.801841
0.901766
0.981577
1.038677
1.061062
1.044516
1.009802
0.903389
0.780429
0.668176
0.58577
0.515693
0.485196
0.534834
0.611725
0.657469
0.728195
0.810601
0.909877
0.988065
1.040948
1.067875
1.084097
1.061711
0.945889
0.829743
0.705485
0.613347
0.559167
0.536456
0.560789
0.595503
0.658443
0.75123
0.860888
0.925125
0.951729
0.975088
0.974115
0.964706
0.93421
0.849857
0.766478
0.685371
0.62016
0.585446
0.597125
0.619511
0.670771
0.753501
0.828769
0.918637
0.991634
1.03965
1.079231
1.088963
1.084746
1.001691
0.889438
0.783673
0.677584
0.610427
0.570846
0.586743
0.618538
0.654225
0.732413
0.813521
0.900144
0.96276
0.998771
1.015642
1.024402
1.000394
0.889438
0.799895
0.694779
0.626648
0.587068
0.582526
0.609454
0.650007
0.709703
0.77686
0.866728
0.94524
0.999096
1.03381
1.037703
1.031539
0.997474
0.886843
0.793731
0.695752
0.611076
0.560464
0.561113
0.581552
0.615293
0.66558
0.727547
0.833636
0.927721
0.987741
1.027321
1.039325
1.028944
0.936805
0.840773
0.75999
0.676611
0.614644
0.575388
0.593556
0.624377
0.656172
0.733711
0.811574
0.903389
0.972492
0.998123
0.999096
1.028295
1.025699
0.907931
0.806059
0.712298
0.636381
0.589663
0.584797
0.599396
0.633786
0.676935
0.748959
0.848235
0.938103
0.989363
1.033161
1.02505
1.01402
0.95692
0.842395
0.755123
0.687642
0.652603
0.623404
0.643843
0.67726
0.713272
0.752852
0.799246
0.879056
0.956271
1.017264
1.051329
1.057494
1.051654
0.973466
0.884247
0.781402
0.684722
0.626973
0.600045
0.618213
0.651305
0.698023
0.775238
0.862186
0.944916
1.010451
1.038028
1.027321
1.021157
0.995852
0.89398
0.811574
0.720734
0.642546
0.586094
0.575064
0.592908
0.635732
0.693481
0.77686
0.869648
0.947836
0.981577
1.011424
1.009802
1.006882
0.966328
0.867377
0.781078
0.692184
0.622106
0.580255
0.595179
0.631515
0.670771
0.724951
0.778482
0.849533
0.909228
0.953351
0.991958
1.018562
1.020184
0.944916
0.843693
0.741822
0.650656
0.603289
0.58285
0.616267
0.648385
0.686344
0.774589
0.860239
0.945565
1.014669
1.058142
1.070146
1.078906
1.052627
0.939725
0.837529
0.732413
0.639301
0.576686
0.543594
0.546189
0.596152
0.658443
0.733711
0.82001
0.894304
0.946538
1.013695
1.046787
1.068849
1.033486
0.936805
0.819685
0.714569
0.635084
0.599072
0.615293
0.645141
0.698348
0.774914
0.855373
0.945889
1.017913
1.059116
1.082799
1.084746
1.059116
0.976061
0.868674
0.762585
0.665905
0.610102
0.571819
0.598423
0.628595
0.671744
0.761288
0.870297
0.966977
1.035108
1.071444
1.072093
1.06528
1.020184
0.895602
0.802166
0.712623
0.646439
0.613347
0.628595
0.657145
0.712623
0.766478
0.830067
0.906308
0.965031
0.9965
1.028295
1.033161
1.045165
1.00526
0.899495
0.80249
0.69997
0.624053
0.579281
0.598747
0.634759
0.686993
0.765505
0.844018
0.927072
0.987092
1.021482
1.044192
1.066902
1.050032
0.95984
0.848235
0.741173
0.652927
0.600694
0.566629
0.587068
0.614644
0.65974
0.735009
0.817739
0.896251
0.975412
1.043543
1.060738
1.079879
1.060413
0.965679
0.866079
0.75999
0.669149
0.624053
0.616915
0.636057
0.717165
0.792757
0.868674
0.944916
1.01402
1.041272
1.065929
1.0536
1.051329
0.99131
0.889762
0.794704
0.697374
0.629893
0.604263
0.624053
0.65163
0.687317
0.755772
0.841422
0.939076
1.015966
1.057494
1.075662
1.077284
1.041272
0.93421
0.819036
0.721058
0.635408
0.586094
0.556247
0.586743
0.629893
0.671096
0.742795
0.825525
0.918961
0.994878
1.04257
1.055547
1.075662
1.060089
0.954
0.846289
0.735333
0.646763
0.603614
0.601343
0.616267
0.673367
0.732738
0.805086
0.876136
0.935507
0.968924
0.992607
0.98547
0.978008
0.909228
0.806059
0.723005
0.668825
0.610751
0.566953
0.588041
0.621782
0.672393
0.764856
0.856346
0.946538
1.028619
1.074364
1.082475
1.084097
1.06528
0.977359
0.871594
0.760314
0.669798
0.625351
0.606534
0.636381
0.65455
0.686019
0.750257
0.829094
0.91961
1.005909
1.0682
1.084421
1.084746
1.053276
0.936481
0.819036
0.703539
0.60264
0.544892
0.53159
0.558518
0.625351
0.708081
0.790162
0.885869
0.954
0.983848
1.024402
1.042245
1.061387
1.007207
0.913446
0.812223
0.718463
0.659092
0.628919
0.640275
0.669798
0.719436
0.796002
0.873865
0.959515
1.023104
1.048734
1.063009
1.077284
1.061062
0.967302
0.867052
0.760963
0.654874
0.593232
0.566629
0.594205
0.634435
0.704188
0.798597
0.88814
0.974439
1.040623
1.075986
1.077284
1.066253
1.028944
0.904037
0.795028
0.68829
0.60264
0.556571
0.538727
0.541647
0.592259
0.667851
0.740199
0.823254
0.917339
0.98547
1.028619
1.031863
1.026673
0.941996
0.8398
0.758043
0.685695
0.627297
0.589014
0.596801
0.624053
0.674015
0.756421
0.860239
0.957244
1.029592
1.05652
1.077933
1.090261
1.073715
0.958866
0.863808
0.773291
0.690237
0.640923
0.610102
0.629893
0.663309
0.73728
0.825201
0.925125
1.009478
1.062684
1.081502
1.071769
1.063982
1.021806
0.897873
0.800544
0.714894
0.638328
0.602316
0.610427
0.637679
0.681153
0.746039
0.810926
0.888465
0.960489
1.007531
1.048734
1.05652
1.063982
1.003638
0.890736
0.763883
0.653252
0.579281
0.548136
0.586743
0.647736
0.717165
0.802815
0.876136
0.950756
1.015317
1.061387
1.08215
1.098372
1.076311
0.966977
0.858941
0.747661
0.654874
0.606858
0.581228
0.605236
0.641572
0.701268
0.771345
0.860564
0.95692
1.034135
1.072093
1.081826
1.083448
1.048734
0.932263
0.815143
0.713921
0.644492
0.594854
0.596801
0.62308
0.66266
0.718463
0.772643
0.850506
0.929343
0.990985
1.050356
1.084421
1.104861
1.035432
0.903064
0.771345
0.664607
0.589663
0.573442
0.601343
0.633461
0.668176
0.728195
0.800544
0.885869
0.957893
1.013046
1.052627
1.086368
1.078257
0.983523
0.88522
0.7827
0.689264
0.629568
0.603289
0.621133
0.651305
0.705485
0.773616
0.864132
0.95108
1.027321
1.076635
1.081826
1.079231
1.038677
0.920259
0.817739
0.716516
0.64579
0.604263
0.600694
0.62016
0.671096
0.741822
0.809303
0.900469
0.971195
1.005909
1.026673
1.0111
0.976386
0.875812
0.782051
0.735009
0.697374
0.64579
0.629568
0.663958
0.704188
0.733711
0.790811
0.861212
0.949782
1.017264
1.0536
1.064956
1.07112
1.051654
0.937454
0.83396
0.747661
0.657794
0.603938
0.58869
0.613022
0.650332
0.702565
0.766154
0.847262
0.927072
0.987416
1.022131
1.026673
1.028295
1.004936
0.890411
0.801193
0.717489
0.662985
0.624053
0.625026
0.647412
0.698997
0.774265
0.850831
0.942969
1.013695
1.051978
1.078257
1.084421
1.071444
0.984821
0.872892
0.767127
0.680828
0.617889
0.589014
0.607831
0.64871
0.69413
0.766478
0.84272
0.928045
0.989363
1.026673
1.03965
1.058142
1.051978
0.962111
0.871919
0.772643
0.678233
0.604587
0.566304
0.564358
0.58869
0.645141
0.725924
0.806708
0.885545
0.954649
1.011749
1.037054
1.035432
0.998123
0.896575
0.813845
0.718787
0.648061
0.589663
0.573766
0.601018
0.657145
0.746688
0.830716
0.926099
0.993905
1.026348
1.0536
1.078582
1.077284
0.998771
0.881652
0.768101
0.678557
0.618538
0.591285
0.603938
0.644817
0.699646
0.773616
0.837205
0.918637
0.98255
1.015317
1.020833
1.02797
1.01402
0.918312
0.841422
0.76291
0.698997
0.655198
0.643843
0.675962
0.721707
0.787242
0.863808
0.932912
0.983199
1.011424
1.039974
1.050681
1.0536
1.023428
0.895602
0.789513
0.693806
0.622106
0.579606
0.592908
0.626324
0.681153
0.752528
0.817414
0.910526
1.001691
1.070795
1.09967
1.10259
1.086692
0.99942
0.882949
0.778158
0.690237
0.621458
0.577984
0.58869
0.615942
0.662011
0.742146
0.830067
0.921881
0.980928
1.029917
1.043219
1.049383
1.025375
0.932912
0.846289
0.761612
0.682126
0.626973
0.626
0.663958
0.701917
0.744093
0.800544
0.870945
0.953351
1.022779
1.070146
1.074364
1.038677
0.975088
0.850182
0.770372
0.714894
0.679206
0.653252
0.655198
0.662985
0.708405
0.797624
0.883274
0.981577
1.052627
1.102914
1.126273
1.132437
1.12822
1.039974
0.919935
0.80541
0.707432
0.654225
0.627622
0.647088
0.676286
0.706134
0.785944
0.864457
0.949458
1.022455
1.062684
1.076959
1.091234
1.072417
0.967302
0.878083
0.773616
0.678557
0.619186
0.602965
0.631839
0.669798
0.726573
0.805735
0.908255
1.003638
1.070471
1.118487
1.131464
1.124975
1.070146
0.950107
0.843693
0.742795
0.670771
0.631515
0.628271
0.635408
0.661363
0.712298
0.764856
0.847911
0.928694
0.987092
1.039325
1.079879
1.106158
1.035757
0.919935
0.823903
0.74247
0.678882
0.636057
0.650332
0.68018
0.710676
0.774914
0.855373
0.958866
1.034135
1.069498
1.062684
1.064631
1.035108
0.922206
0.830716
0.739875
0.669149
0.618213
0.612049
0.657469
0.710676
0.776536
0.866403
0.948809
1.019535
1.054249
1.083448
1.06528
1.058142
1.019535
0.914095
0.815468
0.714569
0.648385
0.621133
0.631839
0.650656
0.706134
0.786593
0.866079
0.959191
1.0111
1.046138
1.062684
1.070146
1.077933
1.010127
0.908255
0.800868
0.708081
0.655198
0.624377
0.64579
0.682451
0.712947
0.774265
0.852453
0.952378
1.026997
1.066578
1.066578
1.063658
1.037054
0.926099
0.836556
0.748959
0.682775
0.649034
0.647412
0.669473
0.684397
0.718138
0.781402
0.860888
0.948809
1.004936
1.046463
1.057494
1.067551
1.018237
0.907282
0.809952
0.710027
0.618862
0.561113
0.564033
0.598423
0.66558
0.754474
0.846289
0.953351
1.031863
1.080204
1.094154
1.092208
1.080528
0.994229
0.885869
0.783673
0.691859
0.624702
0.573442
0.584472
0.616267
0.669798
0.76291
0.858617
0.957569
1.028619
1.077608
1.083773
1.094154
1.064956
0.94524
0.839476
0.717814
0.604911
0.547812
0.539376
0.567602
0.625675
0.701268
0.79957
0.908255
1.00234
1.055547
1.100319
1.103238
1.104861
1.03965
0.916366
0.796326
0.689588
0.624053
0.589663
0.612698
0.646439
0.702565
0.789189
0.872892
0.957569
1.016615
1.045814
1.050032
1.040948
1.024726
0.949782
0.851804
0.749932
0.658767
0.596476
0.565655
0.604263
0.643843
0.698672
0.771994
0.852128
0.950431
1.024077
1.058791
1.054898
1.051005
1.024402
0.917339
0.832987
0.750906
0.684073
0.643519
0.626324
0.632488
0.665256
0.703539
0.762585
0.851804
0.951404
1.017913
1.080204
1.098696
1.10259
1.043867
0.927721
0.836556
0.746039
0.671096
0.62016
0.61432
0.630217
0.670771
0.739226
0.832338
0.946214
1.054574
1.108105
1.120433
1.110376
1.082799
0.993581
0.886194
0.778807
0.699646
0.653252
0.613022
0.655198
0.698672
0.747986
0.812872
0.892682
0.977683
1.046463
1.088315
1.105185
1.119784
1.100967
0.988065
0.881976
0.78854
0.704188
0.656172
0.646114
0.665256
0.714245
0.761936
0.828445
0.908904
0.98547
1.030241
1.072093
1.074364
1.082475
1.01986
0.906633
0.806384
0.717489
0.652927
0.613347
0.624702
0.64871
0.679855
0.744417
0.814819
0.908579
0.977035
1.015317
1.040299
1.0536
1.019535
0.919286
0.820334
0.73144
0.669798
0.633786
0.593881
0.616267
0.64287
0.691535
0.770696
0.848884
0.932912
1.009153
1.058142
1.071769
1.099345
1.094803
0.987416
0.875487
0.771994
0.674015
0.615618
0.609129
0.63411
0.691535
0.750581
0.835582
0.931614
1.012073
1.054898
1.087341
1.068849
1.050356
0.971844
0.857644
0.749932
0.65455
0.596801
0.574415
0.616591
0.666878
0.714569
0.793406
0.876785
0.971519
1.051654
1.108754
1.135682
1.141846
1.114594
1.024077
0.908579
0.795028
0.70581
0.661038
0.627946
0.650007
0.675638
0.730791
0.814819
0.90274
0.994878
1.063658
1.09967
1.099994
1.089612
1.055223
0.933561
0.81709
0.701917
0.624702
0.583823
0.585121
0.614644
0.69121
0.767452
0.849208
0.943943
1.021806
1.066253
1.114269
1.117838
1.121407
1.04549
0.923179
0.823254
0.725924
0.629893
0.574739
0.578308
0.609778
0.660065
0.741497
0.804437
0.895278
0.991634
1.0536
1.09091
1.115242
1.105185
1.027321
0.926748
0.816116
0.726573
0.669798
0.638652
0.665256
0.695752
0.743768
0.823254
0.908255
0.984172
1.047112
1.09091
1.09675
1.094479
1.064631
0.950107
0.842071
0.741173
0.652279
0.607183
0.619835
0.659092
0.719436
0.775887
0.845964
0.938752
1.028944
1.081177
1.121082
1.112971
1.115242
1.032837
0.91961
0.819685
0.746364
0.695428
0.676611
0.699646
0.727871
0.761612
0.81125
0.861861
0.935507
1.012073
1.060413
1.087666
1.083124
1.049058
0.940049
0.824876
0.711325
0.625026
0.587392
0.565331
0.601343
0.643843
0.712623
0.794055
0.884247
0.965355
1.038352
1.08215
1.092532
1.09091
1.049058
0.932263
0.835582
0.741497
0.653252
0.599396
0.586094
0.597125
0.639301
0.700619
0.775238
0.881976
0.982874
1.044516
1.088963
1.100967
1.110052
1.04257
0.937454
0.824227
0.719111
0.641248
0.596801
0.596801
0.632164
0.689588
0.779131
0.869323
0.981577
1.055223
1.08799
1.093505
1.098048
1.077608
0.980279
0.883274
0.778158
0.693157
0.64871
0.616267
0.642221
0.674015
0.735333
0.805086
0.8969
0.980279
1.047761
1.078906
1.082475
1.079231
1.044516
0.930965
0.815468
0.714894
0.624702
0.582526
0.57409
0.604911
0.670771
0.752852
0.830067
0.923503
1.010451
1.058467
1.096101
1.104212
1.106158
1.029268
0.924477
0.823578
0.729169
0.65455
0.617564
0.627297
0.655198
0.695752
0.783998
0.86543
0.952702
1.015966
1.051005
1.060413
1.060738
1.041272
0.944267
0.855373
0.760639
0.674664
0.632813
0.61432
0.641248
0.682126
0.753826
0.843369
0.934534
1.015642
1.066253
1.079879
1.059765
1.03965
0.994878
0.868999
0.771345
0.666229
0.580904
0.54846
0.568251
0.607183
0.675638
0.761612
0.831689
0.90274
0.961462
0.997798
1.031863
1.088315
1.130166
1.079879
0.980928
0.862835
0.758368
0.687642
0.646114
0.653252
0.676935
0.702241
0.760639
0.828769
0.921557
0.99942
1.050032
1.067875
1.080528
1.073066
0.978981
0.882949
0.784322
0.70873
0.639301
0.592908
0.610102
0.647088
0.708081
0.798597
0.898198
0.98547
1.050032
1.088963
1.099021
1.095128
1.064956
0.947836
0.841098
0.740848
0.654225
0.602316
0.590312
0.591285
0.616591
0.689264
0.77686
0.890087
0.982874
1.03673
1.076311
1.089288
1.09091
0.9965
0.85667
0.740848
0.652279
0.599396
0.575713
0.586743
0.628595
0.676611
0.744742
0.827796
0.929343
0.990661
1.013371
0.995203
0.967302
0.926423
0.838178
0.746039
0.636381
0.547812
0.495254
0.495254
0.548785
0.616267
0.716192
0.82001
0.92253
1.006233
1.057169
1.07112
1.053276
1.033486
0.997474
0.888789
0.795677
0.707756
0.638328
0.586094
0.574415
0.576362
0.610427
0.667202
0.742795
0.831365
0.930641
1.010451
1.071444
1.080204
1.057494
0.964382
0.838502
0.71976
0.621782
0.557869
0.543269
0.59453
0.657469
0.712623
0.792109
0.863159
0.952378
1.012073
1.051005
1.066902
1.070795
1.046138
0.940698
0.840449
0.732089
0.651954
0.607507
0.589014
0.60556
0.632813
0.691859
0.75123
0.830391
0.896575
0.950756
0.997474
1.018886
1.019535
0.975737
0.838178
0.727871
0.619186
0.545541
0.520235
0.541647
0.567277
0.617889
0.687966
0.766478
0.875812
0.971844
1.009802
1.01986
1.024077
1.015317
0.94816
0.846937
0.745066
0.65455
0.593881
0.573766
0.600694
0.637679
0.676935
0.758043
0.844991
0.936156
0.994554
1.024402
1.023104
1.023428
0.995852
0.892033
0.790162
0.685695
0.600369
0.539701
0.506609
0.504013
0.527372
0.589014
0.6685
0.770696
0.878732
0.972492
1.038677
1.068849
1.070471
1.030566
0.896251
0.777185
0.664931
0.578308
0.527697
0.543594
0.558518
0.605885
0.669149
0.730791
0.805735
0.870621
0.906957
0.932912
0.952053
0.950756
0.890736
0.806059
0.717165
0.63119
0.558842
0.491685
0.48325
0.511475
0.555598
0.627297
0.702565
0.784971
0.829418
0.844991
0.835907
0.821632
0.782376
0.690886
0.609778
0.520884
0.447238
0.39468
0.386569
0.398897
0.428745
0.487143
0.56598
0.657469
0.744093
0.811574
0.844666
0.825849
0.786593
0.714894
0.556896
0.415768
0.285671
0.188341
0.125402
0.114047
0.114695
0.152654
0.211052
0.267827
0.338229
0.399871
0.436856
0.467353
0.486494
0.477085
0.386245
0.270747
0.165307
0.080955
0.020286
-0.014753
-0.001451
0.036183
0.071222
0.148112
0.22338
0.310003
0.36905
0.411875
0.418039
0.426474
0.401817
0.284373
0.176986
0.073168
-0.002749
-0.043627
-0.051414
-0.025459
0.003415
0.04916
0.118264
0.204563
0.288915
0.349908
0.387542
0.389489
0.375538
0.313572
0.19775
0.114047
0.042023
-0.041681
-0.098781
-0.082883
-0.043627
0.019961
0.114695
0.222731
0.336931
0.429394
0.494929
0.543269
0.577984
0.580579
0.513422
0.410901
0.302217
0.191261
0.106909
0.050458
0.054027
0.074466
0.101718
0.171795
0.241873
0.314545
0.359966
0.370023
0.346015
0.336931
0.301892
0.171795
0.048836
-0.087425
-0.192217
-0.257103
-0.292142
-0.268458
-0.213954
-0.134793
-0.056604
0.01769
0.08647
0.136757
0.165307
0.165956
0.149734
0.093932
-0.023837
-0.131224
-0.237637
-0.317447
-0.356379
-0.33886
-0.311932
-0.260996
-0.181186
-0.094239
-0.000153
0.065706
0.102367
0.135135
0.155249
0.16044
0.08355
0.003091
-0.082883
-0.16756
-0.225633
-0.252561
-0.233095
-0.207465
-0.172751
-0.09067
0.008282
0.118589
0.193857
0.245766
0.265232
0.275938
0.250632
0.151032
0.063111
-0.019944
-0.066013
-0.076719
-0.031948
0.034236
0.066031
0.113722
0.191586
0.285671
0.383974
0.462162
0.542945
0.544243
0.515693
0.438803
0.312274
0.20067
0.128646
0.094905
0.090687
0.115669
0.140974
0.181853
0.259067
0.351206
0.44302
0.54846
0.618862
0.667851
0.682126
0.684722
0.604911
0.499796
0.405386
0.332065
0.301244
0.299946
0.343095
0.387218
0.4401
0.529319
0.63119
0.738577
0.818063
0.869323
0.888789
0.915068
0.907606
0.817739
0.73728
0.650981
0.589339
0.565006
0.574739
0.626648
0.684073
0.772967
0.880678
0.997149
1.089288
1.148983
1.197972
1.190186
1.184022
1.124651
1.014344
0.914744
0.832338
0.772318
0.745066
0.750581
0.766803
0.803464
0.869972
0.94524
1.023428
1.081177
1.111998
1.136655
1.148983
1.176884
1.136006
1.073715
1.006882
0.918312
0.85148
0.815143
0.839151
0.868674
0.923179
1.000718
1.095452
1.187915
1.241771
1.272267
1.282325
1.297897
1.278107
1.184346
1.095777
1.008504
0.944916
0.917339
0.909553
0.931614
0.958542
1.012398
1.08799
1.201541
1.320932
1.391334
1.452976
1.475686
1.498721
1.453949
1.330016
1.213221
1.112323
1.036081
1.010127
1.037054
1.079879
1.133735
1.206408
1.282974
1.384196
1.469846
1.520782
1.549981
1.561012
1.555496
1.470171
1.363108
1.252477
1.169098
1.132113
1.115242
1.161636
1.208679
1.279405
1.377383
1.477633
1.57334
1.635955
1.655421
1.653475
1.648933
1.612596
1.488014
1.369597
1.255721
1.174613
1.127571
1.115242
1.139575
1.189537
1.255072
1.313146
1.383223
1.43935
1.476335
1.515591
1.539599
1.554199
1.494179
1.369597
1.257019
1.151579
1.057818
1.014669
1.027646
1.04841
1.097723
1.187915
1.267076
1.345589
1.409826
1.448758
1.463682
1.463682
1.450705
1.356295
1.236904
1.131788
1.035757
0.980928
0.952053
0.985145
1.029268
1.096425
1.180778
1.263832
1.334234
1.395876
1.438052
1.455896
1.462709
1.437079
1.331963
1.224576
1.115891
1.030566
0.984172
0.965031
0.98255
1.013695
1.070795
1.148334
1.241446
1.326123
1.37349
1.420857
1.423128
1.414693
1.338776
1.214519
1.097074
0.99131
0.898198
0.866728
0.890087
0.925125
0.963084
1.024077
1.095128
1.189862
1.281676
1.335856
1.377708
1.400742
1.374463
1.246313
1.115891
0.987092
0.887167
0.82812
0.77978
0.784322
0.801517
0.865754
0.975737
1.074688
1.161961
1.23366
1.278756
1.291733
1.294653
1.274538
1.164556
1.055871
0.950756
0.870945
0.825525
0.806059
0.811899
0.840773
0.887816
0.961137
1.05944
1.140224
1.181426
1.212896
1.221332
1.245988
1.21679
1.141521
1.03381
0.913446
0.821956
0.784647
0.795677
0.827472
0.867052
0.939725
1.026348
1.124975
1.203812
1.238202
1.256046
1.259939
1.237553
1.14217
1.039974
0.927072
0.834933
0.780429
0.743444
0.772643
0.807357
0.867052
0.944591
1.038677
1.124002
1.17656
1.183698
1.163583
1.152552
1.130491
1.031539
0.949782
0.867377
0.803788
0.754474
0.729818
0.741497
0.783349
0.846613
0.913122
0.990336
1.052952
1.076959
1.099994
1.109403
1.09967
1.021157
0.888465
0.76291
0.646763
0.572468
0.582526
0.654225
0.730142
0.796651
0.89398
0.990012
1.094803
1.187266
1.234309
1.244042
1.220683
1.165205
1.057169
0.943943
0.844991
0.771994
0.730791
0.709054
0.737604
0.777834
0.82812
0.913446
1.020508
1.120433
1.192457
1.207705
1.189862
1.175911
1.143468
1.030241
0.931614
0.829094
0.737928
0.683424
0.673691
0.698023
0.763559
0.841747
0.927072
1.019211
1.104536
1.162285
1.200892
1.196675
1.174938
1.096101
0.966328
0.857968
0.769398
0.703863
0.680504
0.708081
0.742146
0.788215
0.883274
0.977035
1.079555
1.158067
1.194728
1.201866
1.199595
1.158716
1.04841
0.941023
0.82812
0.740848
0.684397
0.657145
0.685695
0.724302
0.77102
0.854399
0.954649
1.03089
1.05944
1.053925
1.035432
1.043867
1.044841
0.961462
0.884247
0.804112
0.73436
0.688939
0.666553
0.669149
0.711325
0.791135
0.885869
0.995203
1.081502
1.127895
1.139575
1.109403
1.079555
1.000069
0.885545
0.771669
0.678557
0.603289
0.568575
0.575064
0.596152
0.620484
0.678882
0.749932
0.835582
0.914095
0.95692
0.970546
0.971844
0.937129
0.829743
0.734035
0.628595
0.548136
0.502391
0.481952
0.514071
0.559816
0.614969
0.698023
0.794704
0.888789
0.94524
0.971519
0.958218
0.932263
0.873865
0.73728
0.635408
0.555922
0.498822
0.476761
0.480979
0.50304
0.541323
0.610102
0.679855
0.762585
0.83688
0.903713
0.94524
0.939725
0.917015
0.816116
0.671744
0.533212
0.437829
0.372294
0.35445
0.381703
0.426474
0.465406
0.538403
0.609454
0.704836
0.783349
0.832987
0.860888
0.868999
0.835582
0.708081
0.57993
0.459891
0.379107
0.329469
0.300595
0.333362
0.362886
0.402791
0.466055
0.553651
0.653901
0.735009
0.789837
0.819361
0.83104
0.780429
0.640923
0.511151
0.405062
0.333687
0.302217
0.313248
0.350882
0.405062
0.455997
0.516017
0.603938
0.6831
0.74539
0.787566
0.795028
0.784647
0.705485
0.583175
0.46865
0.376512
0.32882
0.31195
0.340175
0.366779
0.382676
0.449509
0.539052
0.640275
0.742795
0.820659
0.853751
0.859915
0.82293
0.703539
0.613671
0.523804
0.449509
0.406684
0.386245
0.405386
0.45178
0.524452
0.624702
0.728195
0.821307
0.89106
0.939725
0.940049
0.929019
0.894304
0.780105
0.679206
0.576686
0.50304
0.458268
0.463135
0.49136
0.54846
0.633786
0.729169
0.846289
0.946214
1.000718
1.03089
1.026348
1.006233
0.919935
0.80249
0.699646
0.613347
0.549109
0.518937
0.537754
0.578957
0.627297
0.708081
0.783024
0.881003
0.954324
1.009478
1.040623
1.06528
1.047436
0.941996
0.83396
0.714245
0.603614
0.525426
0.498498
0.521208
0.5689
0.646114
0.75415
0.860888
0.946538
1.003962
1.044192
1.055871
1.049707
1.025699
0.929343
0.850831
0.761936
0.698672
0.662985
0.649359
0.649034
0.674015
0.720409
0.77978
0.872892
0.955622
1.011749
1.061387
1.075337
1.072742
0.99131
0.868026
0.748635
0.63995
0.557869
0.528346
0.54846
0.586743
0.633786
0.721707
0.808979
0.907282
0.970221
1.020833
1.046463
1.072093
1.066578
0.977683
0.885869
0.789513
0.711974
0.659416
0.624702
0.636381
0.670771
0.737928
0.821632
0.912797
1.002016
1.064956
1.106807
1.117838
1.114269
1.082475
0.954649
0.833636
0.724302
0.669149
0.640923
0.647088
0.662985
0.718787
0.798922
0.874514
0.981252
1.060089
1.110376
1.132113
1.125624
1.100319
1.009153
0.883598
0.760963
0.650007
0.57409
0.550731
0.58869
0.632813
0.682126
0.774914
0.862186
0.960489
1.042894
1.118811
1.154499
1.170071
1.13114
1.004287
0.869323
0.741497
0.64579
0.603289
0.595503
0.638652
0.685371
0.744742
0.825849
0.925125
0.996825
1.043219
1.060738
1.056196
1.048734
1.002665
0.880678
0.771669
0.66266
0.588041
0.551056
0.55722
0.575713
0.634759
0.715867
0.795353
0.896251
0.993256
1.058142
1.095777
1.094803
1.072742
0.981901
0.867377
0.761936
0.666878
0.59745
0.554949
0.56598
0.577659
0.612049
0.694779
0.781402
0.87711
0.955946
1.01694
1.047436
1.04257
0.990661
0.865106
0.755123
0.676611
0.613347
0.564682
0.537105
0.545865
0.585446
0.655847
0.739875
0.835582
0.914744
0.966653
0.999096
0.979954
0.962435
0.91377
0.793406
0.688939
0.601992
0.552029
0.527372
0.538403
0.559491
0.61432
0.679531
0.749284
0.824876
0.900469
0.952053
0.98255
1.000718
0.998447
0.918961
0.80249
0.687966
0.579281
0.506933
0.471895
0.502716
0.553002
0.602965
0.675313
0.740524
0.813521
0.86251
0.905984
0.919935
0.938752
0.910526
0.795353
0.678882
0.564033
0.47157
0.42031
0.40863
0.436532
0.484547
0.547163
0.622106
0.706459
0.788864
0.840773
0.884572
0.893007
0.901766
0.877434
0.769074
0.663634
0.559816
0.495578
0.465406
0.470921
0.488441
0.529968
0.59453
0.670122
0.773291
0.870945
0.936481
0.974439
0.982874
0.972168
0.888465
0.761612
0.650981
0.569548
0.516342
0.506284
0.555922
0.60556
0.653576
0.736955
0.809303
0.900144
0.976386
1.028619
1.054574
1.078906
1.043867
0.914744
0.799246
0.700294
0.640275
0.629568
0.65455
0.700619
0.75707
0.812872
0.878407
0.962111
1.051005
1.11654
1.166178
1.16488
1.146063
1.095128
0.973466
0.876136
0.772643
0.711649
0.68018
0.693481
0.719436
0.774914
0.853102
0.929668
1.017913
1.09091
1.136979
1.178831
1.207381
1.212896
1.14801
1.073715
1.00526
0.934858
0.87711
0.846613
0.867701
0.906633
0.948485
1.038677
1.138602
1.237553
1.319634
1.363757
1.373166
1.37349
1.330341
1.208679
1.099021
0.991958
0.919935
0.885869
0.884247
0.919935
0.968599
1.038677
1.109403
1.197324
1.281351
1.347536
1.40204
1.410475
1.40204
1.363757
1.25637
1.157743
1.060089
0.969573
0.905984
0.896251
0.898847
0.935832
1.003962
1.095452
1.202515
1.29076
1.352402
1.398147
1.407555
1.401067
1.29368
1.146388
1.026348
0.945565
0.911824
0.901118
0.935832
0.97379
1.011424
1.078257
1.15677
1.240149
1.321905
1.36473
1.379979
1.395227
1.376734
1.276809
1.177858
1.072093
0.984172
0.930965
0.911824
0.936481
0.950107
0.998123
1.072742
1.162285
1.253775
1.315417
1.36473
1.375761
1.371219
1.324501
1.204786
1.092208
0.993905
0.938427
0.919935
0.943294
0.974764
1.029268
1.099021
1.159041
1.222954
1.276485
1.314768
1.330665
1.317688
1.292058
1.194404
1.086044
0.992283
0.909877
0.869323
0.838178
0.862186
0.893007
0.930316
0.993581
1.077608
1.186293
1.273241
1.31639
1.313146
1.310226
1.270645
1.147361
1.030566
0.937454
0.86251
0.813845
0.794055
0.809628
0.835258
0.905984
1.005909
1.116216
1.219709
1.292707
1.335532
1.329043
1.319634
1.267725
1.147686
1.029917
0.925125
0.857968
0.830716
0.852453
0.883923
0.927072
1.007531
1.082475
1.171045
1.255397
1.311199
1.331314
1.307306
1.276161
1.171694
1.051654
0.941023
0.863808
0.836231
0.828769
0.880678
0.936481
0.987741
1.051654
1.120109
1.202515
1.277458
1.321905
1.335856
1.344616
1.309253
1.191808
1.066253
0.95108
0.858293
0.815792
0.820659
0.867377
0.908904
0.967626
1.044516
1.12822
1.21095
1.262859
1.302115
1.29076
1.275836
1.219061
1.109727
0.992607
0.885869
0.803464
0.768749
0.78854
0.828445
0.883598
0.975737
1.054249
1.144441
1.222305
1.25929
1.273241
1.27097
1.260912
1.175911
1.064956
0.959515
0.857644
0.781078
0.735657
0.747661
0.774589
0.823903
0.908255
1.000394
1.100967
1.185969
1.215492
1.204461
1.187915
1.128544
0.984496
0.879056
0.806059
0.743768
0.704188
0.717489
0.776536
0.864132
0.962111
1.059116
1.140224
1.1678
1.172018
1.17364
1.172342
1.171694
1.109078
0.980603
0.85148
0.741497
0.657794
0.613022
0.610751
0.646439
0.702241
0.804437
0.894629
0.999096
1.090586
1.146063
1.181751
1.186293
1.181751
1.093181
0.978657
0.856995
0.767776
0.710676
0.684397
0.716516
0.760963
0.812223
0.890087
0.977683
1.064307
1.128544
1.149308
1.14509
1.141846
1.112971
1.003962
0.894953
0.793406
0.710352
0.658443
0.650981
0.680504
0.727547
0.786269
0.866728
0.971195
1.053276
1.094479
1.121407
1.110052
1.095452
1.026348
0.915393
0.810601
0.707432
0.632488
0.606209
0.60848
0.63995
0.688939
0.77686
0.845315
0.929019
1.021157
1.088639
1.140873
1.152876
1.134384
1.023428
0.90274
0.783024
0.690886
0.635732
0.611076
0.647736
0.6831
0.72268
0.796975
0.889438
0.973466
1.043543
1.076959
1.084421
1.107456
1.097723
0.980928
0.877434
0.766478
0.678557
0.633137
0.638977
0.672718
0.714245
0.753826
0.794704
0.885545
0.962435
1.024402
1.083773
1.106158
1.106483
1.051329
0.939725
0.829094
0.731115
0.668176
0.637355
0.635732
0.662336
0.702565
0.774265
0.845315
0.93129
1.000069
1.033161
1.054898
1.060413
1.059116
0.979306
0.880354
0.786918
0.706459
0.655847
0.624702
0.648061
0.681477
0.740524
0.823578
0.919286
1.001042
1.056845
1.083124
1.081177
1.079879
1.060089
0.933561
0.826823
0.740524
0.667527
0.629893
0.621782
0.637355
0.686019
0.749608
0.827147
0.921557
0.990012
1.033161
1.068524
1.063658
1.060738
1.007531
0.897549
0.79438
0.71684
0.653901
0.627622
0.64579
0.675638
0.718138
0.790486
0.860888
0.940049
1.002665
1.031539
1.042245
1.04549
1.026997
0.91961
0.814494
0.719436
0.635732
0.596476
0.593232
0.649034
0.706134
0.755772
0.833311
0.911499
0.995852
1.068524
1.091883
1.088315
1.072093
1.034783
0.911175
0.80249
0.711974
0.655198
0.592908
0.557544
0.558518
0.623729
0.706459
0.807681
0.942645
1.022779
1.059116
1.081502
1.077608
1.06528
1.0111
0.898522
0.80541
0.719436
0.648385
0.611076
0.61432
0.647412
0.693157
0.774589
0.848884
0.94232
1.015642
1.0682
1.088315
1.087666
1.062684
0.958542
0.850506
0.760639
0.679855
0.621782
0.597774
0.62308
0.669149
0.721707
0.808979
0.900469
0.991634
1.055871
1.084746
1.07404
1.054898
0.995852
0.857968
0.763559
0.686344
0.640599
0.620484
0.627946
0.649683
0.703214
0.771994
0.849857
0.94524
1.010451
1.04549
1.075986
1.081502
1.084097
1.04257
0.924801
0.793731
0.681477
0.58285
0.538403
0.561438
0.610751
0.670771
0.754799
0.843369
0.954973
1.015317
1.065929
1.090586
1.104212
1.100319
1.010127
0.890736
0.773291
0.684722
0.630866
0.622431
0.649034
0.687642
0.740199
0.827796
0.912473
0.995203
1.061711
1.104212
1.115567
1.116865
1.09091
0.960489
0.8398
0.724951
0.647736
0.602316
0.603938
0.634759
0.690237
0.758043
0.834609
0.93129
1.007531
1.049058
1.065604
1.056845
1.04841
0.991958
0.891709
0.792433
0.699321
0.62016
0.579281
0.589339
0.631515
0.685371
0.773616
0.866403
0.965355
1.03673
1.078906
1.102265
1.109727
1.077933
0.962111
0.84856
0.728844
0.643843
0.609778
0.600694
0.615618
0.643519
0.682775
0.76291
0.85667
0.919286
0.973141
1.018562
1.034135
1.049383
1.045814
0.955298
0.873865
0.77686
0.688939
0.629568
0.614644
0.62016
0.675313
0.754474
0.844991
0.949133
1.022779
1.070146
1.092532
1.067551
1.031863
0.965679
0.872243
0.794704
0.718787
0.665256
0.642546
0.664607
0.69705
0.738253
0.808979
0.880354
0.974439
1.046787
1.092857
1.11654
1.124327
1.096101
0.988065
0.85959
0.749932
0.65163
0.592259
0.567602
0.576037
0.602316
0.641897
0.723653
0.854075
0.987741
1.073391
1.135033
1.143792
1.13925
1.09675
0.96276
0.860564
0.754799
0.681153
0.637679
0.638004
0.657145
0.711001
0.780753
0.858941
0.952053
1.022131
1.059765
1.060089
1.038677
1.014993
0.93129
0.812548
0.732738
0.678557
0.636381
0.61432
0.636381
0.67726
0.720409
0.783024
0.849208
0.934858
0.992607
1.050032
1.072093
1.073715
1.041921
0.936481
0.824552
0.707756
0.623404
0.590961
0.596152
0.627297
0.661687
0.715867
0.802166
0.902091
0.984821
1.045165
1.09383
1.105509
1.110376
1.073715
0.94816
0.837529
0.724951
0.653901
0.621133
0.626
0.649683
0.715543
0.801193
0.893007
0.98547
1.044192
1.077933
1.098372
1.10259
1.08799
1.011424
0.890736
0.780429
0.689588
0.626973
0.587392
0.616915
0.665256
0.721707
0.812548
0.896251
0.994229
1.055547
1.09675
1.084746
1.086368
1.046787
0.934534
0.820659
0.717489
0.63411
0.581552
0.559491
0.59453
0.636381
0.695752
0.778482
0.874839
0.965679
1.031863
1.082799
1.094154
1.08215
1.029592
0.897549
0.808655
0.717814
0.660714
0.622431
0.626324
0.644168
0.697699
0.770047
0.852128
0.955298
1.035108
1.085395
1.117189
1.126598
1.112323
1.03089
0.923503
0.823254
0.732089
0.669798
0.624053
0.626973
0.64871
0.686993
0.768101
0.858293
0.964706
1.041272
1.092208
1.113945
1.133086
1.113945
1.013371
0.894629
0.777185
0.684722
0.641248
0.635084
0.667202
0.703863
0.768425
0.852128
0.937778
1.017264
1.072417
1.113945
1.118487
1.115567
1.06528
0.934858
0.829418
0.7256
0.657469
0.615293
0.627946
0.661687
0.726249
0.80249
0.892358
0.995527
1.07112
1.10778
1.122055
1.093181
1.066253
0.990336
0.875812
0.775563
0.686344
0.624377
0.597125
0.625026
0.663309
0.714245
0.79438
0.883274
0.965031
1.040299
1.106807
1.127571
1.146712
1.12822
1.018886
0.912797
0.803788
0.677909
0.596801
0.562411
0.58285
0.626324
0.693481
0.798597
0.912797
1.020833
1.088639
1.139899
1.139575
1.12822
1.073066
0.950756
0.8398
0.743119
0.671096
0.625675
0.645141
0.676935
0.740848
0.816765
0.892358
0.974764
1.047112
1.100319
1.127895
1.129517
1.108754
1.031539
0.916366
0.806059
0.718463
0.653576
0.613347
0.643194
0.695103
0.761612
0.852777
0.925125
0.995852
1.038028
1.063658
1.064631
1.080204
1.050032
0.9394
0.83688
0.733711
0.649034
0.609454
0.596476
0.626973
0.670122
0.728195
0.814494
0.909553
1.020184
1.098372
1.138926
1.12822
1.111674
1.047112
0.922854
0.825525
0.740199
0.682451
0.654225
0.675313
0.692508
0.749932
0.822281
0.898198
0.977035
1.051005
1.085719
1.1107
1.107456
1.078257
0.984496
0.853102
0.726249
0.632164
0.598098
0.579606
0.626973
0.701268
0.772967
0.855373
0.941671
1.019211
1.06528
1.093181
1.103563
1.118162
1.094479
0.993905
0.905335
0.821956
0.736306
0.679531
0.660714
0.671096
0.710352
0.77394
0.853102
0.946862
1.035432
1.099021
1.137304
1.137304
1.126273
1.07112
0.943943
0.82812
0.730142
0.659092
0.618862
0.627946
0.644492
0.692832
0.75999
0.835907
0.929668
1.010775
1.054249
1.090261
1.112647
1.121082
1.06528
0.971195
0.863159
0.739551
0.647412
0.59745
0.619511
0.663958
0.713921
0.780753
0.873216
0.967626
1.044192
1.080528
1.074688
1.072093
1.029917
0.912797
0.817739
0.737604
0.664607
0.628271
0.628271
0.656821
0.691535
0.739226
0.804112
0.890087
0.984496
1.075662
1.147361
1.15969
1.161636
1.101616
0.977035
0.862835
0.757719
0.682126
0.644492
0.659092
0.69121
0.740199
0.813521
0.901442
0.995852
1.063658
1.081177
1.081177
1.060089
1.034135
0.947836
0.860564
0.775238
0.711325
0.673042
0.652927
0.695103
0.753177
0.81709
0.893656
0.974764
1.03673
1.08507
1.110052
1.117513
1.126273
1.097074
0.981577
0.868026
0.764207
0.6685
0.619511
0.598098
0.619186
0.65163
0.716192
0.797948
0.907606
1.018562
1.094803
1.143468
1.141197
1.124651
1.0536
0.929668
0.819361
0.723978
0.660065
0.64287
0.662985
0.695752
0.74831
0.818387
0.88814
0.971519
1.03965
1.073715
1.090586
1.083773
1.063009
0.953351
0.827147
0.712623
0.619186
0.56306
0.528995
0.543918
0.569224
0.638977
0.768749
0.892358
1.011424
1.090586
1.132762
1.14801
1.154499
1.120433
1.005585
0.894953
0.791784
0.69705
0.656496
0.661363
0.706134
0.73436
0.778158
0.829094
0.894629
0.959515
1.027321
1.090261
1.104536
1.113945
1.049707
0.932263
0.817739
0.723005
0.653901
0.626
0.64579
0.681153
0.735009
0.812872
0.884896
0.966977
1.03089
1.063658
1.095452
1.102265
1.099345
1.007531
0.906308
0.801193
0.718463
0.67142
0.640275
0.66266
0.691859
0.742146
0.830067
0.923179
1.009802
1.084097
1.120109
1.123353
1.118162
1.080853
0.95984
0.849208
0.743768
0.645465
0.595503
0.57993
0.61432
0.666553
0.744742
0.839151
0.929343
0.993581
1.035108
1.065929
1.054898
1.042245
0.96795
0.851155
0.751879
0.682775
0.636381
0.618862
0.64579
0.678557
0.724951
0.795677
0.869323
0.963084
1.046463
1.098372
1.1253
1.126922
1.11654
1.015966
0.89398
0.792757
0.732738
0.685695
0.663958
0.675638
0.696401
0.736631
0.814819
0.911824
1.0111
1.091883
1.134059
1.148334
1.139899
1.095128
0.955298
0.838827
0.734035
0.657469
0.615618
0.609129
0.635732
0.675313
0.743119
0.821307
0.912473
0.99942
1.057494
1.099021
1.092857
1.089937
1.01694
0.889762
0.784647
0.707756
0.645465
0.619186
0.64287
0.692508
0.737604
0.797624
0.847586
0.925125
0.991958
1.036406
1.076959
1.109403
1.12238
1.033486
0.932587
0.816116
0.73144
0.674664
0.635408
0.656821
0.686993
0.735657
0.815143
0.911175
1.004287
1.081502
1.122704
1.140873
1.13925
1.109078
0.980603
0.856995
0.742146
0.644492
0.590637
0.582526
0.625351
0.693157
0.779456
0.875163
0.973141
1.040948
1.078257
1.113945
1.123029
1.117838
1.048734
0.932263
0.813197
0.701917
0.61724
0.575064
0.579281
0.613347
0.672718
0.766478
0.860888
0.97087
1.069498
1.129842
1.149308
1.138926
1.111998
1.006233
0.884572
0.783998
0.700943
0.647412
0.627946
0.68018
0.732413
0.783673
0.852453
0.92837
0.9965
1.05652
1.089937
1.107132
1.110376
1.092857
0.975737
0.870297
0.774914
0.703214
0.668825
0.667527
0.684722
0.719111
0.773616
0.843693
0.94232
1.024402
1.084746
1.13633
1.152552
1.148983
1.063982
0.918312
0.802815
0.710352
0.63995
0.625675
0.657794
0.704512
0.751555
0.834285
0.906633
1.000394
1.072093
1.11654
1.133086
1.132762
1.112323
1.010775
0.89398
0.775563
0.682451
0.6114
0.557544
0.572144
0.613347
0.653576
0.738577
0.872243
1.007531
1.108105
1.150281
1.147686
1.124975
1.086692
0.965031
0.872568
0.768425
0.689588
0.65163
0.653252
0.679855
0.735009
0.808979
0.891709
0.987741
1.066578
1.106483
1.140224
1.136655
1.115891
1.023104
0.890087
0.781402
0.689913
0.627622
0.610102
0.657469
0.717489
0.766154
0.830067
0.90274
0.996825
1.066253
1.117838
1.143792
1.148983
1.11362
1.002665
0.880678
0.774265
0.701592
0.674989
0.679855
0.70873
0.734035
0.771994
0.853751
0.945565
1.044841
1.115567
1.152876
1.137953
1.125949
1.106483
1.007531
0.911175
0.791784
0.687966
0.616915
0.587392
0.59745
0.668825
0.746688
0.847911
0.969897
1.072742
1.130815
1.175587
1.170396
1.148983
1.074688
0.960489
0.858617
0.77102
0.703863
0.671096
0.692508
0.73436
0.77978
0.863808
0.934534
1.025375
1.082475
1.110376
1.111674
1.105834
1.065604
0.959515
0.863483
0.770047
0.705161
0.667202
0.653901
0.68018
0.714894
0.764532
0.848884
0.952378
1.058791
1.138277
1.176884
1.178182
1.1678
1.126598
0.993905
0.881976
0.77686
0.69121
0.643843
0.645141
0.664282
0.723329
0.773616
0.841422
0.927072
1.020833
1.104212
1.154499
1.152228
1.124327
1.026024
0.87419
0.780429
0.717489
0.689588
0.696077
0.720734
0.758692
0.797624
0.867377
0.941347
1.029917
1.090261
1.129842
1.153525
1.167151
1.140873
1.034135
0.919286
0.812872
0.723653
0.663309
0.630542
0.650332
0.681802
0.733386
0.802166
0.878732
0.967626
1.054898
1.114594
1.131788
1.141197
1.117513
1.005909
0.915068
0.823254
0.757719
0.718787
0.718138
0.717165
0.757719
0.821956
0.900144
0.997474
1.077608
1.126922
1.157419
1.156445
1.146388
1.066253
0.940698
0.839476
0.738577
0.672069
0.637679
0.665256
0.709054
0.741822
0.804112
0.888789
0.997798
1.077933
1.123678
1.161636
1.186942
1.162609
1.041596
0.896251
0.75707
0.661363
0.6114
0.608156
0.645141
0.692508
0.749932
0.814494
0.893331
0.986767
1.060413
1.1107
1.123678
1.126922
1.092208
0.994554
0.899171
0.789837
0.696726
0.649683
0.665256
0.710352
0.785944
0.857968
0.937454
1.023753
1.095777
1.136006
1.17072
1.165529
1.159041
1.083773
0.954324
0.852128
0.766154
0.712947
0.692508
0.721058
0.760639
0.787242
0.853426
0.919935
0.987092
1.023428
1.030241
1.016615
1.050032
1.073391
1.014669
0.937778
0.844342
0.765505
0.712298
0.67434
0.693157
0.74539
0.809303
