1.09675
1.013046
0.933885
0.876136
0.941023
1.180778
1.462709
1.747235
1.933459
2.070694
2.143367
2.048633
1.894528
1.6817
1.330016
1.098048
0.980603
0.869648
0.794055
0.740199
0.728844
0.938752
1.226198
1.484121
1.717712
1.869871
1.985044
2.040522
1.968822
1.833859
1.585344
1.285893
1.187915
1.118162
1.076311
1.029268
0.979954
0.947836
1.094479
1.415342
1.682025
1.88447
2.022678
2.108977
2.056744
1.928268
1.733934
1.433185
1.263508
1.172018
1.047436
0.902091
0.778807
0.714569
0.836231
1.106158
1.414368
1.713495
1.902963
2.047335
2.119359
2.028194
1.877008
1.669047
1.31931
1.17364
1.051005
0.936156
0.844342
0.786593
0.777834
0.919286
1.204786
1.472442
1.734907
1.914642
2.03598
2.07848
1.992182
1.831912
1.577882
1.38225
1.264157
1.139899
1.007531
0.876785
0.76583
0.711649
0.887816
1.182075
1.455896
1.700842
1.902314
2.055446
2.058366
1.953899
1.753724
1.451678
1.348184
1.226847
1.111025
1.001042
0.907606
0.850831
0.858941
1.120758
1.415342
1.71025
1.891608
2.023003
2.083023
1.980178
1.828668
1.619409
1.300168
1.196026
1.057818
0.920583
0.803464
0.717165
0.681477
0.85667
1.179804
1.471793
1.730041
1.903612
2.012621
2.031762
1.908478
1.740098
1.476335
1.262534
1.161961
1.038677
0.898847
0.750906
0.630542
0.634435
0.857968
1.20219
1.5104
1.767675
1.96428
2.116115
2.108653
1.981475
1.741071
1.472117
1.344616
1.204137
1.056196
0.905011
0.763883
0.666229
0.716516
0.963408
1.238202
1.534084
1.738151
1.908478
2.030465
1.980826
1.862084
1.655097
1.482499
1.370246
1.241446
1.113296
0.998447
0.909877
0.863159
0.890736
1.178831
1.456545
1.712521
1.88155
1.99575
2.014243
1.882524
1.696949
1.430266
1.281027
1.190835
1.100319
0.999745
0.914095
0.857968
0.823254
0.91961
1.243393
1.529542
1.7388
1.88739
1.9672
1.887066
1.72485
1.492881
1.168449
0.958866
0.898522
0.859266
0.830391
0.816441
0.847911
0.89398
1.071769
1.359539
1.621031
1.779679
1.903936
1.993804
1.911722
1.762484
1.559389
1.40788
1.295302
1.144441
0.995527
0.879381
0.791784
0.74539
0.79957
1.114269
1.415991
1.697273
1.883821
1.998995
2.014243
1.882199
1.686567
1.419559
1.337478
1.222629
1.091883
0.961462
0.847911
0.776211
0.752528
0.869972
1.207057
1.503912
1.723552
1.873439
1.95909
1.890634
1.747235
1.532137
1.264157
1.170396
1.048734
0.918312
0.793406
0.698023
0.633786
0.649034
0.918961
1.254099
1.611623
1.83613
1.963307
2.003212
1.872466
1.701491
1.477957
1.326772
1.261561
1.149957
1.015966
0.895278
0.820659
0.798597
0.790486
1.075986
1.334234
1.573016
1.739774
1.853649
1.865978
1.752751
1.59605
1.414368
1.387441
1.303737
1.188888
1.063333
0.932912
0.820334
0.730791
0.793406
1.08215
1.360837
1.569771
1.749506
1.902963
1.890634
1.775461
1.558741
1.414368
1.321581
1.215492
1.091234
0.970221
0.872892
0.824227
0.817739
0.977683
1.277134
1.569447
1.739125
1.847485
1.889661
1.765079
1.594753
1.373814
1.225549
1.152876
1.046138
0.94524
0.881003
0.868026
0.892358
0.923503
1.126598
1.41372
1.660937
1.828019
1.937028
1.923726
1.771892
1.553874
1.298222
1.168774
1.043219
0.93129
0.826823
0.749284
0.722031
0.781078
0.838178
1.157419
1.458816
1.665154
1.817313
1.908154
1.840996
1.69922
1.480553
1.354024
1.211599
1.040623
0.868026
0.686668
0.480979
0.357695
0.451131
0.742795
1.057169
1.433834
1.76151
1.980502
2.04993
1.892905
1.675536
1.470495
1.333585
1.133086
0.914419
0.723329
0.5689
0.458593
0.495254
0.60556
0.935832
1.21387
1.443892
1.591833
1.694029
1.707979
1.616489
1.477957
1.465304
1.423128
1.242744
0.98255
0.755772
0.626324
0.592908
0.715867
0.875487
1.15093
1.497099
1.711872
1.847485
1.930539
1.85884
1.699544
1.540248
1.464655
1.356944
1.252153
1.151579
1.046138
0.954324
0.901442
0.881003
0.896575
1.183373
1.480877
1.654124
1.769946
1.807904
1.671643
1.489637
1.30244
1.235931
1.140548
1.031863
0.920583
0.827147
0.763234
0.739226
0.748959
0.932587
1.226522
1.476659
1.647959
1.755995
1.737503
1.596375
1.384521
1.287191
1.207057
1.10778
1.006558
0.8969
0.809952
0.76291
0.751879
0.768425
1.00818
1.324825
1.537653
1.692406
1.778381
1.691433
1.535381
1.346562
1.295626
1.18532
1.048085
0.8969
0.736955
0.604587
0.524128
0.481627
0.646439
0.952053
1.257019
1.451029
1.580802
1.652826
1.591508
1.502289
1.552901
1.493205
1.374463
1.2249
1.064631
0.941347
0.85667
0.826823
0.815792
0.89982
1.175587
1.425724
1.602214
1.708628
1.700517
1.557118
1.334558
1.223927
1.169747
1.147361
1.140224
1.109403
1.051005
0.990985
0.952702
0.938427
1.058142
1.372841
1.584695
1.737178
1.8105
1.709926
1.549008
1.440972
1.380303
1.258966
1.111998
0.965679
0.830391
0.734684
0.683424
0.679206
0.747013
1.04257
1.356295
1.567825
1.707655
1.75048
1.611947
1.428968
1.338127
1.237878
1.09091
0.919286
0.75999
0.669798
0.670122
0.711325
0.772318
0.905984
1.217114
1.488339
1.665154
1.766377
1.741396
1.60189
1.488988
1.455247
1.373166
1.244366
1.093181
0.953027
0.837853
0.751879
0.688615
0.662336
0.874514
1.177533
1.370895
1.509103
1.585344
1.506831
1.367975
1.232362
1.263508
1.22782
1.146388
1.028619
0.922854
0.897224
0.904037
0.932912
0.977359
1.10778
1.366677
1.503587
1.597348
1.617787
1.494828
1.340722
1.382899
1.406582
1.318661
1.155796
0.984172
0.856022
0.755772
0.723329
0.760639
0.853102
1.164556
1.425724
1.582424
1.674238
1.631413
1.486392
1.387441
1.362784
1.267725
1.134384
0.994878
0.860564
0.753501
0.696077
0.683748
0.713272
0.892033
1.234309
1.456545
1.608703
1.676185
1.5675
1.4108
1.389387
1.338776
1.237878
1.115891
0.996825
0.889438
0.801517
0.76291
0.762585
0.775563
0.95984
1.237553
1.396525
1.509751
1.550954
1.420533
1.260912
1.273241
1.168125
1.005585
0.826823
0.676935
0.63703
0.703214
0.752852
0.815468
0.872243
1.092857
1.357917
1.56458
1.688838
1.64212
1.487366
1.455896
1.404311
1.312497
1.192133
1.039974
0.854075
0.669473
0.552354
0.521533
0.56598
0.80833
1.206083
1.488988
1.66775
1.73588
1.608379
1.515916
1.454598
1.342345
1.200892
1.060738
0.936156
0.857644
0.823578
0.829094
0.842071
0.869648
1.001042
1.29076
1.463358
1.575935
1.595401
1.434808
1.305035
1.283622
1.227496
1.155472
1.081826
0.992607
0.903064
0.846613
0.826823
0.830716
0.869972
1.093181
1.341696
1.5104
1.600592
1.553225
1.405933
1.368624
1.339425
1.271943
1.173965
1.055871
0.934534
0.816116
0.706459
0.620809
0.567277
0.726573
1.033161
1.255072
1.442594
1.556145
1.494179
1.454922
1.518835
1.479255
1.330989
1.149957
0.985794
0.877758
0.848884
0.848884
0.818712
0.782376
0.906957
1.159041
1.336505
1.485743
1.586317
1.533435
1.654448
1.660937
1.569447
1.424426
1.25345
1.07404
0.911824
0.786593
0.700943
0.674015
0.720409
1.032512
1.289462
1.492232
1.6246
1.591833
1.497099
1.495152
1.451354
1.358891
1.244042
1.124651
1.015642
0.927397
0.870297
0.838827
0.838178
0.898522
1.18824
1.394254
1.543168
1.608054
1.487366
1.378681
1.366353
1.315092
1.217438
1.112971
1.009802
0.920259
0.843369
0.812872
0.808979
0.840124
0.972817
1.257992
1.439025
1.54479
1.54187
1.364406
1.178182
1.098696
0.985794
0.890087
0.835582
0.827147
0.835258
0.854724
0.867052
0.903389
0.940698
1.094154
1.324176
1.491908
1.609676
1.562309
1.449083
1.413395
1.330989
1.194404
1.026024
0.866403
0.75123
0.697374
0.68829
0.723005
0.806708
0.997798
1.263508
1.469846
1.604485
1.651204
1.517538
1.429617
1.384196
1.307306
1.209328
1.106483
1.006233
0.939725
0.908579
0.890087
0.868674
0.870297
0.962111
1.237878
1.428968
1.5675
1.590535
1.457842
1.466926
1.441621
1.356295
1.240473
1.114269
0.985145
0.868674
0.795353
0.768749
0.779131
0.846289
1.069822
1.317363
1.48185
1.577558
1.508454
1.387441
1.387116
1.359864
1.292058
1.193755
1.074364
0.957569
0.863483
0.809303
0.795677
0.810277
0.878083
1.151579
1.335207
1.452327
1.482499
1.32515
1.125624
0.999096
0.92253
0.879381
0.90274
0.92545
0.901766
0.857319
0.856995
0.92545
1.010451
1.099021
1.30244
1.477957
1.581451
1.573016
1.438052
1.430266
1.3537
1.181751
0.985145
0.802815
0.68018
0.675313
0.802815
0.960164
1.033486
1.083448
1.149632
1.367001
1.51916
1.600592
1.51916
1.435132
1.424101
1.385494
1.294653
1.189537
1.09675
0.999745
0.90274
0.83396
0.79146
0.78562
0.846289
1.128869
1.336829
1.478282
1.537328
1.408204
1.35078
1.348184
1.306982
1.235282
1.157094
1.070471
0.979306
0.90566
0.87419
0.866403
0.890087
0.958866
1.221007
1.402364
1.512996
1.498721
1.331638
1.251504
1.188888
1.070471
0.946214
0.825201
0.744093
0.689913
0.666878
0.670122
0.718787
0.851155
1.082799
1.333261
1.504236
1.594428
1.506831
1.428968
1.403662
1.361486
1.270645
1.188564
1.151903
1.093181
1.011749
0.947511
0.908255
0.894953
0.936481
1.151579
1.346238
1.480553
1.54187
1.424101
1.410475
1.39036
1.329692
1.215816
1.062684
0.864781
0.672069
0.529968
0.476437
0.512773
0.700294
0.976386
1.279729
1.48477
1.596699
1.585668
1.527595
1.525973
1.493205
1.414368
1.309253
1.193106
1.07112
0.955298
0.876461
0.850182
0.860564
0.901442
1.054898
1.276161
1.424101
1.503263
1.408853
1.272592
1.283947
1.290111
1.23658
1.169423
1.105185
1.03381
0.956271
0.900144
0.873865
0.874514
0.927397
1.147686
1.343967
1.473091
1.518187
1.366353
1.240473
1.135033
1.005585
0.870945
0.753177
0.709054
0.727547
0.76583
0.800544
0.803788
0.880029
1.066578
1.305035
1.488663
1.596375
1.5821
1.537004
1.533759
1.490934
1.387116
1.240797
1.091234
0.940374
0.784971
0.666878
0.635084
0.65455
0.732089
1.022455
1.309901
1.514293
1.621356
1.540572
1.542519
1.520458
1.455247
1.341047
1.202839
1.063658
0.92545
0.810601
0.748635
0.724951
0.742146
0.832338
1.116216
1.317363
1.461087
1.515916
1.389387
1.395227
1.372841
1.288489
1.170071
1.050356
0.955946
0.886843
0.839151
0.835907
0.851804
0.882301
0.954324
1.210625
1.402364
1.520133
1.500343
1.397498
1.383547
1.335207
1.234309
1.102914
0.946214
0.778807
0.635732
0.559491
0.544567
0.628595
0.838827
1.086368
1.334558
1.488014
1.570096
1.487366
1.510076
1.502289
1.445189
1.340722
1.217438
1.077933
0.931614
0.784971
0.669473
0.583499
0.533212
0.663309
1.003638
1.243717
1.412422
1.488663
1.416964
1.488014
1.514942
1.478606
1.380952
1.235931
1.063009
0.904362
0.785944
0.731115
0.712947
0.761936
0.903389
1.16488
1.354997
1.482499
1.481201
1.44227
1.447136
1.401067
1.27908
1.123353
0.972168
0.84272
0.76291
0.720085
0.70873
0.768425
0.898847
1.072742
1.30244
1.461087
1.550305
1.458816
1.446163
1.431563
1.403662
1.325799
1.222954
1.126922
1.033161
0.963084
0.910526
0.882625
0.883923
0.934534
1.14509
1.334883
1.473739
1.524026
1.393605
1.409502
1.387765
1.306333
1.189213
1.06528
0.946862
0.84564
0.79438
0.794704
0.820983
0.871594
0.954973
1.210625
1.384845
1.495476
1.454922
1.334558
1.336829
1.304711
1.229442
1.133086
1.021157
0.908579
0.800219
0.734684
0.723329
0.747661
0.810277
1.015642
1.22782
1.375112
1.45038
1.349482
1.256695
1.26513
1.271943
1.279405
1.221332
1.139899
1.075662
1.010127
0.951729
0.91377
0.894629
0.902415
1.119784
1.295626
1.41372
1.43935
1.292382
1.26221
1.323203
1.346238
1.339749
1.28784
1.196675
1.098696
1.026997
0.98839
0.971519
0.98547
1.035108
1.240797
1.406582
1.499694
1.458816
1.357917
1.392307
1.372192
1.255397
1.111349
0.977359
0.866403
0.785295
0.774265
0.818063
0.855373
0.918637
1.073391
1.278432
1.431563
1.520458
1.423453
1.39328
1.384521
1.337803
1.250855
1.145739
1.040948
0.949782
0.867377
0.823903
0.809952
0.828769
0.906308
1.150605
1.345264
1.476984
1.501641
1.358566
1.354349
1.332936
1.260588
1.159365
1.050681
0.94232
0.855373
0.808655
0.824552
0.887167
0.957569
1.035757
1.237553
1.407555
1.502614
1.444216
1.253775
1.160338
1.06236
0.935183
0.835258
0.866728
0.931614
0.941023
0.928694
0.908904
0.936805
1.022779
1.128869
1.330016
1.477633
1.550954
1.449732
1.451354
1.414044
1.324176
1.203812
1.093181
0.99131
0.914095
0.859266
0.808655
0.74247
0.693157
0.729818
0.990661
1.188564
1.376086
1.457193
1.418586
1.491259
1.522729
1.480228
1.385494
1.264157
1.139899
1.024402
0.94816
0.918312
0.908904
0.922854
0.97671
1.206408
1.379979
1.49645
1.461735
1.401391
1.414044
1.3962
1.316714
1.209976
1.09967
0.9965
0.909877
0.863159
0.846613
0.853426
0.905984
1.05944
1.261237
1.408204
1.479255
1.370895
1.342993
1.348509
1.314119
1.241122
1.137628
1.028295
0.924801
0.846937
0.813521
0.809952
0.826823
0.855048
1.070146
1.2249
1.316714
1.299844
1.131788
1.044841
1.092208
1.050681
1.032188
1.10778
1.17364
1.193106
1.168449
1.1107
1.060413
1.054249
1.100643
1.247611
1.398796
1.479255
1.412746
1.29952
1.280703
1.255397
1.22198
1.200568
1.168449
1.094803
1.001367
0.929019
0.882949
0.864781
0.885545
1.018562
1.20219
1.326447
1.383223
1.259939
1.165529
1.217763
1.303737
1.334234
1.265779
1.152228
1.036406
0.952378
0.917664
0.909228
0.929992
0.987741
1.137953
1.316714
1.434159
1.449407
1.368948
1.37641
1.333261
1.249233
1.146712
1.038028
0.935507
0.82812
0.74831
0.707432
0.696726
0.72268
0.857644
1.109403
1.290111
1.389387
1.345264
1.275836
1.291084
1.267401
1.20219
1.147686
1.11946
1.069173
0.986119
0.915717
0.873865
0.881003
0.960164
1.070146
1.264157
1.400093
1.462384
1.391334
1.403987
1.381601
1.311524
1.20219
1.080853
0.958866
0.856346
0.78562
0.741173
0.72268
0.752203
0.836231
1.036406
1.218736
1.334234
1.345913
1.24534
1.292707
1.293031
1.221656
1.14217
1.061711
0.974439
0.894953
0.828445
0.755448
0.690237
0.673691
0.755772
0.972492
1.135682
1.27908
1.281351
1.381925
1.461735
1.464007
1.394578
1.268374
1.145415
1.053925
0.991634
0.950431
0.923503
0.91085
0.949133
1.013695
1.14217
1.262859
1.308928
1.225874
1.221332
1.197648
1.172667
1.137304
1.07404
0.98547
0.891385
0.817739
0.77978
0.781402
0.82812
0.907931
1.001367
1.142819
1.251179
1.260588
1.272916
1.285245
1.268374
1.192457
1.084097
0.960813
0.835907
0.730142
0.664282
0.639301
0.638977
0.687642
0.754799
0.883923
1.039001
1.148659
1.164556
1.218736
1.232362
1.21387
1.138602
1.026348
0.921232
0.832014
0.752852
0.698023
0.680504
0.706783
0.785295
0.89398
1.023428
1.138277
1.213221
1.237229
1.210301
1.151903
1.058142
0.943943
0.845315
0.784647
0.73728
0.695752
0.672069
0.671744
0.692832
0.737928
0.826823
0.94524
1.044516
1.117513
1.19343
1.249233
1.24242
1.161636
1.048085
0.908904
0.747013
0.593232
0.533212
0.541972
0.564033
0.635084
0.748635
0.855048
0.950107
1.057818
1.138602
1.184671
1.214843
1.198297
1.11946
1.006558
0.891709
0.774914
0.660389
0.571495
0.520235
0.502067
0.549434
0.653901
0.814494
0.991634
1.128869
1.196026
1.200244
1.166178
1.099345
1.003638
0.898198
0.798273
0.703214
0.615618
0.563709
0.537754
0.533537
0.571171
0.648061
0.742795
0.866728
0.991958
1.079879
1.129842
1.140873
1.082475
0.969897
0.842071
0.729493
0.632813
0.569548
0.547487
0.547812
0.587392
0.650656
0.723653
0.789189
0.843044
0.884247
0.899171
0.909877
0.91377
0.862186
0.778807
0.698672
0.615293
0.507582
0.415768
0.367752
0.364508
0.427447
0.544892
0.723978
0.921232
1.061062
1.129842
1.14801
1.120758
1.037054
0.91085
0.776536
0.656821
0.566953
0.513097
0.465081
0.419985
0.384947
0.381378
0.414795
0.495902
0.669473
0.862186
1.022131
1.109727
1.111025
1.044841
0.930965
0.809628
0.724951
0.667527
0.631515
0.606534
0.584148
0.597125
0.620809
0.621782
0.667527
0.760639
0.829743
0.889438
0.978981
1.073715
1.102914
1.049383
0.941996
0.827796
0.72852
0.66558
0.638652
0.641572
0.687642
0.761936
0.857968
0.975737
1.072742
1.123353
1.12822
1.098048
1.015966
0.87711
0.706459
0.541647
0.410577
0.317141
0.305461
0.406684
0.573442
0.749608
0.885869
0.990012
1.072742
1.129842
1.136979
1.114594
1.059116
0.958866
0.83688
0.716516
0.60264
0.506609
0.454051
0.454051
0.50304
0.602316
0.729169
0.841098
0.931939
1.002989
1.060413
1.112323
1.141197
1.138926
1.09383
1.004936
0.890411
0.768425
0.66266
0.592583
0.553651
0.552354
0.609129
0.688615
0.794055
0.938103
1.09091
1.215816
1.281351
1.267725
1.172018
1.010127
0.836556
0.680504
0.555922
0.481303
0.512448
0.568575
0.63703
0.768101
0.897549
1.023104
1.138277
1.249882
1.31639
1.315741
1.266103
1.162609
1.023104
0.86835
0.713596
0.587392
0.538727
0.532563
0.550731
0.645141
0.843044
1.029268
1.161636
1.262534
1.316066
1.316066
1.287191
1.223278
1.120109
1.00526
0.911824
0.82812
0.75415
0.705161
0.676286
0.680504
0.738902
0.82293
0.916041
1.030566
1.143144
1.23074
1.270645
1.269672
1.186617
1.066902
0.939725
0.81417
0.695428
0.609454
0.584472
0.59745
0.641897
0.75123
0.897224
1.026348
1.120433
1.173316
1.183698
1.159365
1.098048
0.997474
0.886194
0.785295
0.735982
0.783998
0.84856
0.854399
0.83396
0.837205
0.863159
0.909553
0.966653
1.017913
1.067551
1.113296
1.144441
1.112323
1.013371
0.890087
0.772967
0.670771
0.620484
0.671096
0.750906
0.810277
0.886194
0.973141
1.063009
1.158392
1.237229
1.282974
1.295302
1.275836
1.200892
1.097723
0.977683
0.850831
0.742795
0.671096
0.643519
0.667202
0.74539
0.857644
0.975412
1.083448
1.17072
1.23074
1.249557
1.23658
1.19635
1.114269
1.00818
0.886843
0.764532
0.660714
0.590312
0.557869
0.570846
0.660389
0.771669
0.901442
1.022779
1.123678
1.200568
1.239175
1.225874
1.163583
1.046463
0.903064
0.737604
0.594205
0.501418
0.440749
0.428421
0.473517
0.622431
0.794055
0.944591
1.092208
1.190835
1.231389
1.250206
1.232362
1.163258
1.030241
0.873541
0.749932
0.686668
0.687317
0.747013
0.838178
0.952702
1.056196
1.136006
1.202839
1.259939
1.299844
1.305035
1.280703
1.230091
1.119784
0.984496
0.845964
0.708081
0.592908
0.552354
0.59453
0.679206
0.79957
0.923503
1.027321
1.12822
1.233336
1.306657
1.330989
1.317688
1.258317
1.151579
1.030566
0.914744
0.816765
0.733386
0.68829
0.676286
0.693806
0.759016
0.867701
1.004287
1.143792
1.266103
1.320608
1.312497
1.263832
1.174289
1.064631
0.944267
0.831689
0.747986
0.69705
0.684073
0.696401
0.754474
0.84856
0.954973
1.067227
1.160014
1.240473
1.297249
1.320283
1.270321
1.154174
1.056845
0.961462
0.846613
0.776211
0.760639
0.761288
0.81125
0.925774
1.066253
1.193106
1.291409
1.368299
1.419884
1.414693
1.347536
1.2249
1.067551
0.900144
0.749932
0.668825
0.692184
0.764532
0.853751
0.933885
1.010775
1.075013
1.145739
1.223927
1.297573
1.367001
1.48477
1.566527
1.528244
1.393929
1.225874
1.084097
0.984172
0.925125
0.902415
0.8969
0.925774
0.999096
1.094803
1.196675
1.295626
1.378032
1.422804
1.434808
1.409178
1.323203
1.229767
1.137628
1.052303
0.993905
0.950107
0.924152
0.930316
0.995852
1.089288
1.186293
1.285893
1.388738
1.460438
1.48477
1.472766
1.416639
1.310226
1.15969
0.982874
0.812872
0.666878
0.591934
0.606858
0.758368
0.952053
1.103563
1.215492
1.312497
1.415666
1.497423
1.537977
1.530191
1.487041
1.385494
1.235607
1.073391
0.931939
0.83688
0.823254
0.865754
0.958542
1.107456
1.23366
1.305684
1.355646
1.398147
1.418586
1.441945
1.452327
1.451678
1.427021
1.350131
1.246962
1.151579
1.088639
1.060089
1.065604
1.118487
1.192457
1.255721
1.321257
1.389712
1.43351
1.451029
1.473415
1.500667
1.478606
1.389063
1.27097
1.155472
1.07404
1.035757
1.028944
1.059116
1.131788
1.225874
1.324176
1.409826
1.473739
1.497099
1.465629
1.387441
1.262859
1.128869
1.023753
0.989363
0.989039
1.02797
1.087017
1.132113
1.186617
1.269996
1.367001
1.48185
1.584371
1.653799
1.669372
1.653799
1.586966
1.454598
1.304386
1.172018
1.06528
0.985794
0.985145
1.03381
1.092532
1.182075
1.307306
1.420533
1.520133
1.599943
1.638551
1.638226
1.606756
1.532786
1.422479
1.304711
1.205759
1.111998
1.045814
1.003314
0.966328
0.958218
0.997798
1.07404
1.195053
1.375112
1.571718
1.728418
1.780328
1.751778
1.653799
1.505209
1.345264
1.201217
1.106158
1.07112
1.091234
1.14217
1.210625
1.281676
1.345913
1.402364
1.44746
1.492232
1.554847
1.63628
1.670994
1.631738
1.548683
1.43643
1.346238
1.269672
1.221656
1.218736
1.25637
1.361811
1.478606
1.583397
1.682349
1.78487
1.876684
1.897123
1.854947
1.756968
1.619085
1.471144
1.335856
1.242095
1.211599
1.207705
1.201866
1.2249
1.299195
1.387441
1.518187
1.689162
1.79882
1.833534
1.823153
1.744964
1.599619
1.445514
1.306008
1.179804
1.101616
1.135357
1.218087
1.304062
1.379654
1.450705
1.515591
1.569771
1.609028
1.639849
1.641146
1.615192
1.579504
1.531813
1.488988
1.408529
1.267076
1.130166
1.063009
1.08215
1.165854
1.335532
1.512022
1.619085
1.689162
1.753724
1.791034
1.792332
1.761186
1.683647
1.557118
1.411449
1.264157
1.124975
1.007531
0.91961
0.85667
0.84564
0.893656
0.999096
1.163258
1.36765
1.536679
1.63044
1.639849
1.594753
1.498721
1.38225
1.264481
1.152228
1.050356
0.979954
0.95108
0.951729
0.99131
1.061387
1.135682
1.207057
1.278432
1.332287
1.366677
1.411449
1.423128
1.369597
1.298546
1.230416
1.154823
1.075662
1.021482
1.005909
1.00526
1.047112
1.114594
1.178831
1.220683
1.211599
1.163258
1.118162
1.1107
1.105185
1.143144
1.226522
1.257343
1.225225
1.156445
1.087341
1.043543
1.040623
1.086368
1.14217
1.200244
1.240149
1.252801
1.222305
1.181426
1.180129
1.186942
1.183698
1.200568
1.163583
1.073391
0.998447
0.969573
0.973141
1.033486
1.144441
1.27389
1.379005
1.442594
1.471793
1.465304
1.425399
1.34786
1.220683
1.105834
0.989687
0.895927
0.850831
0.825525
0.826174
0.869323
0.976061
1.117189
1.271618
1.398471
1.476659
1.5104
1.500992
1.473091
1.406258
1.29368
1.163258
1.065604
0.988714
0.917664
0.886194
0.904037
0.967626
1.056845
1.146388
1.258317
1.385494
1.466926
1.492881
1.478282
1.422804
1.294978
1.129842
0.952702
0.772643
0.633137
0.576686
0.591934
0.680504
0.838827
1.019535
1.184995
1.302115
1.356944
1.371543
1.362135
1.323852
1.256695
1.177858
1.069822
0.959191
0.879056
0.846613
0.81417
0.76291
0.707107
0.681477
0.71976
0.849857
1.035432
1.207057
1.356944
1.455896
1.49353
1.443892
1.354673
1.244691
1.117838
1.014993
0.94816
0.907931
0.892033
0.92545
1.016291
1.111025
1.194404
1.264481
1.323203
1.329692
1.283622
1.21095
1.115891
1.020833
0.95984
0.921232
0.878407
0.832662
0.838178
0.86835
0.920583
0.988714
1.063982
1.137628
1.198946
1.233336
1.235282
1.200244
1.130166
1.027321
0.929668
0.872568
0.817414
0.798922
0.801193
0.807032
0.82293
0.875163
0.954973
1.061062
1.178182
1.281027
1.357593
1.383223
1.360837
1.286867
1.180129
1.05652
0.92837
0.801841
0.674989
0.567602
0.493307
0.464433
0.503689
0.654225
0.876461
1.066578
1.229442
1.337478
1.38225
1.352078
1.255397
1.11654
0.959191
0.800868
0.657145
0.522181
0.438478
0.461513
0.553976
0.707107
0.956271
1.260263
1.478282
1.569447
1.546737
1.446487
1.288165
1.057169
0.816765
0.631515
0.528346
0.548136
0.64871
0.796326
0.943618
1.063009
1.145415
1.199595
1.228469
1.235607
1.218412
1.181426
1.13633
1.086692
1.051005
1.010451
0.957244
0.908579
0.872892
0.860888
0.865106
0.889438
0.951404
1.04257
1.133735
1.209003
1.254748
1.248259
1.212247
1.147686
1.03965
0.94524
0.893007
0.860564
0.832338
0.796975
0.768425
0.761288
0.801517
0.880029
0.973141
1.070471
1.148659
1.211599
1.241771
1.241122
1.202515
1.117513
1.010451
0.902415
0.803464
0.71684
0.661038
0.629893
0.626
0.677909
0.77394
0.890736
1.021806
1.153201
1.223603
1.231713
1.192782
1.099021
0.952053
0.766478
0.580255
0.430043
0.333038
0.306434
0.383974
0.598098
0.776211
0.867052
0.954649
1.120433
1.294329
1.398796
1.428968
1.432537
1.351104
1.203488
1.031215
0.849533
0.661363
0.5118
0.424852
0.395329
0.461837
0.640923
0.838502
1.03089
1.202515
1.350455
1.428319
1.439674
1.385494
1.283298
1.161312
1.043867
0.941996
0.841747
0.756097
0.698023
0.685046
0.727871
0.808655
0.952378
1.092208
1.168449
1.177858
1.14801
1.098048
1.033486
0.950431
0.882301
0.858293
0.843044
0.807032
0.775563
0.754799
0.782051
0.855048
0.952378
1.055223
1.155472
1.2395
1.27908
1.280703
1.249882
1.163583
1.054249
0.943294
0.85148
0.775238
0.724302
0.705485
0.707432
0.744417
0.807681
0.89106
0.98839
1.079231
1.155472
1.194404
1.17072
1.059765
0.870297
0.664931
0.479032
0.40052
0.455673
0.565006
0.692184
0.832987
0.965679
1.06528
1.172018
1.257992
1.309901
1.305684
1.253126
1.159365
1.039974
0.928045
0.839476
0.796326
0.791135
0.841422
0.897224
0.902415
0.895602
0.936481
0.997149
1.065604
1.134708
1.206408
1.263508
1.280703
1.261561
1.228794
1.166503
1.063982
0.941023
0.818712
0.721058
0.658118
0.59745
0.572144
0.596476
0.687642
0.80833
0.971844
1.163258
1.294329
1.324176
1.287191
1.19343
1.070471
0.9394
0.820334
0.728195
0.682451
0.677584
0.709054
0.792109
0.908255
1.031539
1.150605
1.247286
1.302115
1.315741
1.296924
1.225549
1.112971
0.97963
0.837529
0.713272
0.619186
0.576362
0.586743
0.661687
0.785295
0.901442
0.976061
1.021806
1.053276
1.062684
1.059765
1.060089
1.000394
0.932587
0.894953
0.849857
0.784647
0.750906
0.747337
0.753826
0.777834
0.832338
0.924152
1.031215
1.123678
1.211274
1.272592
1.306008
1.272916
1.174289
1.056196
0.95108
0.870945
0.792433
0.744417
0.723329
0.716192
0.735333
0.751555
0.753826
0.775563
0.825849
0.907282
1.022131
1.191159
1.291409
1.269672
1.149632
0.986119
0.83396
0.727871
0.680504
0.693157
0.753177
0.87127
1.011749
1.151579
1.25929
1.332287
1.360837
1.35078
1.30244
1.193106
1.068849
0.950107
0.840773
0.747337
0.71684
0.726898
0.756421
0.838827
0.956271
1.069822
1.168449
1.254748
1.31639
1.338127
1.329043
1.272267
1.174289
1.058467
0.932263
0.811899
0.709378
0.655523
0.649034
0.687317
0.785944
0.918961
1.041921
1.146712
1.223278
1.254748
1.244042
1.185644
1.051005
0.873865
0.695428
0.532239
0.397924
0.370996
0.424203
0.480979
0.589988
0.829418
1.083773
1.285893
1.43935
1.521755
1.536355
1.505534
1.43643
1.326772
1.189862
1.04549
0.91085
0.804112
0.73436
0.703539
0.701592
0.755123
0.846613
0.950107
1.046138
1.135033
1.206732
1.231065
1.217438
1.162285
1.064631
0.947187
0.82001
0.706134
0.613671
0.567602
0.548785
0.559491
0.612049
0.679206
0.744742
0.824552
0.920259
0.994878
1.054898
1.104536
1.091234
1.041921
0.973466
0.878732
0.763559
0.658767
0.59453
0.564033
0.575713
0.648061
0.767452
0.92837
1.084746
1.190186
1.243717
1.292058
1.298222
1.222305
1.084421
0.940049
0.808655
0.699646
0.628271
0.613996
0.651954
0.72852
0.813521
0.910202
1.031539
1.137304
1.211923
1.256695
1.267401
1.243393
1.173316
1.073715
0.968924
0.870945
0.787891
0.735333
0.69997
0.687642
0.730467
0.804437
0.897549
1.003638
1.11654
1.194728
1.23366
1.237878
1.17364
1.099021
1.022779
0.939076
0.866079
0.81417
0.783998
0.766803
0.771345
0.814819
0.876136
0.938103
1.03673
1.169423
1.285245
1.347536
1.346562
1.270645
1.162934
1.047112
0.918961
0.787566
0.688615
0.649359
0.674989
0.774914
0.897873
1.030241
1.148334
1.23366
1.285245
1.277458
1.227496
1.151254
1.060089
0.93421
0.823903
0.768425
0.725276
0.715867
0.756745
0.837205
0.965355
1.081502
1.185969
1.280054
1.349807
1.384196
1.392307
1.379005
1.328718
1.249233
1.147037
1.037703
0.933885
0.840773
0.781402
0.761936
0.794055
0.863808
0.965355
1.10259
1.218087
1.295951
1.332612
1.346562
1.315417
1.226198
1.117513
1.001691
0.903064
0.828769
0.781078
0.765505
0.764532
0.790162
0.840449
0.906308
0.972492
1.030566
1.087666
1.13633
1.166178
1.190511
1.164232
1.084421
0.993256
0.898522
0.833636
0.830716
0.858617
0.924801
1.005585
1.080528
1.160338
1.227496
1.269672
1.264481
1.217763
1.170071
1.099994
1.020184
0.952378
0.884572
0.818387
0.786918
0.824552
0.876136
0.955298
1.056845
1.158067
1.253126
1.33618
1.395876
1.401716
1.358891
1.27908
1.147361
1.008829
0.905011
0.857644
0.838827
0.844342
0.867052
0.896251
0.941023
0.994878
1.061711
1.13633
1.207705
1.255072
1.291084
1.315092
1.281027
1.196026
1.086692
0.972492
0.880354
0.818387
0.79957
0.80833
0.833311
0.882301
0.952702
1.049707
1.162934
1.283622
1.381276
1.4533
1.47082
1.425724
1.342669
1.218087
1.090261
0.967626
0.857319
0.774914
0.733062
0.739226
0.79146
0.890411
1.041596
1.191484
1.299195
1.360188
1.405609
1.407555
1.34494
1.24534
1.13925
1.01694
0.917664
0.850831
0.809303
0.789513
0.853102
0.966328
1.091234
1.221332
1.342669
1.443567
1.475686
1.460438
1.410151
1.315092
1.18824
1.057818
0.938427
0.836231
0.742795
0.636381
0.572144
0.587717
0.658767
0.796002
1.099345
1.408529
1.582749
1.629142
1.589886
1.483797
1.358242
1.226522
1.096425
0.987416
0.914095
0.87419
0.861861
0.889438
0.953351
1.015642
1.078582
1.141197
1.191159
1.21679
1.238851
1.24534
1.203488
1.113945
1.021806
0.929992
0.843044
0.779456
0.741822
0.727547
0.763559
0.834933
0.933885
1.0536
1.198297
1.313146
1.346887
1.338127
1.264481
1.150281
1.028944
0.91669
0.82812
0.767452
0.730467
0.69997
0.682451
0.718138
0.796002
0.914744
1.060413
1.214519
1.317039
1.358891
1.364082
1.307955
1.227171
1.123029
1.003962
0.894629
0.813197
0.774914
0.759016
0.783349
0.854399
0.98839
1.127571
1.2249
1.275187
1.305359
1.318986
1.284271
1.202839
1.105185
1.030566
0.980603
0.929992
0.897549
0.903713
0.953027
1.039001
1.139575
1.243393
1.3537
1.471468
1.578206
1.636604
1.641471
1.580153
1.483472
1.377059
1.274214
1.17656
1.091883
1.040623
1.029917
1.067875
1.142495
1.241771
1.358566
1.462384
1.532137
1.534084
1.48769
1.416315
1.311848
1.199919
1.158392
1.204461
1.25053
1.273241
1.28492
1.294978
1.34202
1.422479
1.514618
1.60189
1.683971
1.744316
1.765079
1.761186
1.702139
1.568474
1.398796
1.211923
1.022455
0.86835
0.795028
0.819036
0.944916
1.181751
1.426372
1.643093
1.824126
1.947086
1.994777
1.980178
1.932811
1.846836
1.733285
1.606108
1.473415
1.3537
1.259939
1.209652
1.193755
1.245988
1.368948
1.511698
1.629142
1.714143
1.77027
1.77903
1.750155
1.69922
1.614543
1.489961
1.346562
1.217438
1.114918
1.046138
1.007856
1.052303
1.183698
1.319959
1.429617
1.543492
1.634333
1.69338
1.709926
1.681376
1.617138
1.529542
1.409826
1.280703
1.182724
1.137953
1.133411
1.134059
1.165529
1.236255
1.346887
1.460113
1.549332
1.600917
1.612596
1.573664
1.482824
1.379005
1.273241
1.197972
1.149632
1.09675
1.052303
1.045165
1.062684
1.120433
1.232038
1.34494
1.454922
1.552576
1.619409
1.623303
1.565554
1.44746
1.262859
1.068524
0.939725
0.905335
0.906957
0.961462
1.09091
1.182724
1.24242
1.308279
1.381601
1.458167
1.528244
1.573664
1.580802
1.56166
1.509103
1.414368
1.307306
1.202515
1.109727
1.033486
0.990985
0.979954
0.994229
1.050032
1.117189
1.190186
1.257668
1.31055
1.348184
1.375761
1.385494
1.358566
1.294004
1.198297
1.090261
1.000394
0.937778
0.906633
0.905984
0.944591
1.042245
1.152876
1.2395
1.298871
1.34494
1.369272
1.359864
1.343967
1.283298
1.162609
1.016615
0.894304
0.828445
0.809628
0.86835
0.99131
1.124651
1.223278
1.297249
1.363757
1.427346
1.48185
1.52792
1.542843
1.493205
1.401067
1.289787
1.172018
1.050356
0.93129
0.853426
0.808006
0.803464
0.852128
0.951404
1.093181
1.232038
1.326123
1.38225
1.455571
1.544141
1.575935
1.516564
1.397498
1.26221
1.143144
1.054898
1.008504
1.004611
1.040299
1.109727
1.195377
1.273565
1.326447
1.343967
1.31055
1.25637
1.190835
1.099345
1.012073
0.977035
0.965679
0.959191
0.977683
1.004936
1.040623
1.106807
1.189213
1.279729
1.369272
1.439999
1.477633
1.477633
1.446163
1.375112
1.265454
1.146388
1.035432
0.929343
0.840449
0.774589
0.718138
0.687642
0.706134
0.772643
0.917015
1.134708
1.335856
1.505534
1.627845
1.655746
1.575611
1.4533
1.33618
1.219709
1.100967
1.007856
0.958866
0.945565
0.97087
1.022131
1.0682
1.107456
1.14801
1.19927
1.266428
1.379005
1.460762
1.441945
1.346238
1.212247
1.08215
0.969248
0.897549
0.874839
0.883598
0.92545
0.989363
1.073715
1.155472
1.221007
1.297249
1.365055
1.399769
1.357268
1.250855
1.109078
0.960813
0.863483
0.819685
0.82293
0.872243
0.941023
1.022455
1.1107
1.194079
1.278107
1.342345
1.377059
1.38517
1.348184
1.254424
1.132762
1.010127
0.929019
0.894304
0.905335
0.931614
0.949782
0.98547
1.053276
1.136979
1.227171
1.329367
1.408204
1.443892
1.436754
1.385818
1.28492
1.147686
0.996825
0.828445
0.672393
0.581877
0.59453
0.671744
0.855048
1.091234
1.280054
1.407231
1.486392
1.519809
1.503912
1.447785
1.334883
1.186942
1.050032
0.960489
0.888789
0.824227
0.767127
0.743444
0.744417
0.808979
0.918637
1.079555
1.271294
1.452327
1.55355
1.558092
1.491259
1.367001
1.226847
1.099021
0.997798
0.921232
0.86835
0.847911
0.86251
0.897873
0.952053
1.02797
1.119136
1.218087
1.292707
1.35662
1.415017
1.406582
1.329692
1.227496
1.122055
1.016615
0.927721
0.874514
0.856022
0.867052
0.929019
1.01986
1.118811
1.209652
1.282
1.322554
1.335856
1.330665
1.294978
1.225549
1.115567
0.986119
0.869648
0.796002
0.768749
0.769398
0.808979
0.892358
0.987416
1.082475
1.177858
1.255721
1.301466
1.327096
1.330341
1.263508
1.137953
0.98839
0.841422
0.761288
0.75999
0.803464
0.858617
0.936481
1.038677
1.146063
1.2395
1.315092
1.358891
1.377059
1.375112
1.330665
1.254424
1.180778
1.117513
1.055223
0.970546
0.915393
0.893007
0.890411
0.927721
0.988714
1.067875
1.15677
1.222629
1.256046
1.25637
1.222629
1.133411
1.025699
0.93129
0.885869
0.914744
0.975737
1.015966
1.03381
1.07112
1.135682
1.209976
1.293355
1.375761
1.444865
1.461735
1.420857
1.353051
1.244042
1.131464
1.05652
1.003962
0.934858
0.870945
0.840449
0.843369
0.906633
1.003314
1.107132
1.215167
1.310875
1.378681
1.403338
1.394578
1.352402
1.268374
1.162609
1.062036
0.965355
0.870297
0.81709
0.803139
0.819361
0.89106
0.996176
1.100967
1.203488
1.289462
1.354349
1.371868
1.346562
1.27908
1.187266
1.084421
0.983523
0.887816
0.815468
0.777185
0.75999
0.777509
0.847911
0.964057
1.086044
1.174613
1.241771
1.272592
1.272267
1.257019
1.22782
1.164556
1.088963
1.006233
0.948485
0.928694
0.947187
0.98255
1.042894
1.122704
1.209976
1.277458
1.306982
1.287516
1.232362
1.168125
1.113296
1.055871
1.023428
0.992283
0.936481
0.901766
0.889114
0.882949
0.917339
1.009153
1.105509
1.195377
1.27908
1.347536
1.378681
1.358891
1.32515
1.273241
1.171694
1.061711
0.936156
0.818063
0.763234
0.786593
0.82293
0.890411
1.007207
1.142495
1.264805
1.3537
1.387441
1.377383
1.331963
1.276161
1.209652
1.140224
1.078582
1.006558
0.95692
0.932912
0.922854
0.907282
0.907606
0.944267
1.014669
1.096425
1.194404
1.335532
1.433834
1.451029
1.403338
1.298222
1.172667
1.0536
0.951729
0.878083
0.843693
0.840449
0.868026
0.94232
1.039974
1.149632
1.25637
1.340722
1.391334
1.414693
1.414044
1.351104
1.240149
1.112971
0.987741
0.879705
0.801193
0.766154
0.766478
0.800219
0.852453
0.930965
1.032512
1.134059
1.213221
1.26221
1.289787
1.277134
1.212572
1.141197
1.054574
0.944267
0.853751
0.796975
0.769398
0.766478
0.807357
0.902091
1.051329
1.192133
1.278107
1.286542
1.229767
1.178182
1.100643
0.990985
0.931939
0.930641
0.941671
0.947187
0.980279
1.026024
1.082799
1.172667
1.260588
1.340398
1.408529
1.446812
1.452976
1.431563
1.388738
1.312172
1.214194
1.106807
1.001367
0.907282
0.832987
0.79146
0.783349
0.82293
0.908255
1.009478
1.125949
1.283947
1.423777
1.495152
1.505209
1.463033
1.37057
1.252801
1.130815
1.022455
0.934858
0.881003
0.867377
0.878407
0.930965
1.017913
1.117838
1.219061
1.303737
1.359864
1.387441
1.378357
1.332287
1.24534
1.142495
1.035108
0.936805
0.857319
0.818712
0.811899
0.821632
0.846613
0.872243
0.886518
0.86251
0.827796
0.819361
0.881976
0.990336
1.132762
1.219061
1.254748
1.237553
1.165205
1.094154
1.054249
1.025699
1.01986
1.03673
1.054898
1.076311
1.094803
1.145415
1.193755
1.237878
1.289462
1.301791
1.315417
1.275512
1.188564
1.093505
1.021482
0.989039
0.992932
1.03673
1.100967
1.162609
1.214194
1.248908
1.270321
1.256046
1.222954
1.222305
1.190835
1.111674
1.055547
1.027646
0.989363
0.954324
0.943943
0.958218
1.021806
1.1107
1.204137
1.298222
1.371543
1.404635
1.400093
1.379005
1.309253
1.210625
1.102265
0.994554
0.90274
0.837205
0.814819
0.826498
0.878732
0.978332
1.100319
1.215816
1.31347
1.386792
1.417613
1.405609
1.358891
1.262859
1.140224
1.009153
0.878732
0.767452
0.694455
0.66266
0.686344
0.792433
0.940698
1.117513
1.275512
1.383547
1.436754
1.411124
1.354349
1.265454
1.143144
1.004611
0.890411
0.830716
0.815468
0.812223
0.795353
0.789513
0.843044
0.960164
1.125624
1.30763
1.450056
1.533435
1.55355
1.524026
1.429292
1.291409
1.157743
1.031539
0.894304
0.770047
0.680504
0.622755
0.615293
0.709054
0.885869
1.109727
1.279729
1.380303
1.422155
1.423453
1.398471
1.31931
1.208679
1.087666
0.97379
0.866079
0.796975
0.790486
0.830067
0.925125
1.051978
1.179155
1.289462
1.360837
1.413395
1.425075
1.381601
1.291409
1.166503
1.046138
0.953027
0.90274
0.894629
0.908904
0.925125
0.940374
1.00234
1.090261
1.18824
1.275187
1.342993
1.381925
1.397498
1.387441
1.321581
1.218736
1.098372
0.973141
0.869323
0.798597
0.772643
0.767127
0.794704
0.873216
0.980279
1.097723
1.209976
1.318337
1.377059
1.389387
1.364082
1.281351
1.175262
1.060738
0.939076
0.812548
0.700619
0.606534
0.535483
0.526399
0.587068
0.74247
0.943294
1.145415
1.347211
1.489312
1.526946
1.473739
1.371543
1.269023
1.190186
1.108429
1.024402
0.970546
0.953027
0.96276
1.00818
1.066578
1.124327
1.177858
1.221332
1.251504
1.284271
1.31055
1.294978
1.247286
1.177209
1.087341
0.994554
0.920259
0.880678
0.866728
0.893331
0.968599
1.063658
1.165854
1.257343
1.321257
1.341047
1.34494
1.318012
1.226522
1.105834
0.966977
0.834285
0.738577
0.692832
0.681802
0.716516
0.832338
0.982225
1.098696
1.178831
1.238526
1.278756
1.275187
1.244691
1.196999
1.154499
1.111998
1.06528
0.988065
0.898198
0.853426
0.845315
0.868026
0.933885
1.034783
1.163583
1.276485
1.36765
1.408529
1.411124
1.394254
1.319959
1.203488
1.074364
0.941347
0.808979
0.701268
0.662011
0.688615
0.775887
0.919286
1.113296
1.282325
1.388414
1.436105
1.424426
1.364082
1.2395
1.072093
0.918637
0.807681
0.737928
0.747013
0.826498
0.906633
0.955622
1.022131
1.121731
1.215167
1.292058
1.343318
1.376086
1.382899
1.372517
1.34202
1.262534
1.149957
1.03381
0.932263
0.847586
0.77978
0.738577
0.738253
0.787566
0.856346
0.945565
1.067551
1.178831
1.27908
1.353051
1.388738
1.376734
1.306008
1.210301
1.117189
1.032188
0.961786
0.927397
0.921881
0.954324
1.02797
1.115891
1.181751
1.206408
1.197648
1.155472
1.099021
1.045814
1.03089
1.040623
1.013371
0.980928
0.972817
0.980928
1.002989
1.024077
1.083124
1.160014
1.245664
1.329367
1.394903
1.424101
1.411124
1.35662
1.245015
1.092532
0.947836
0.819036
0.737928
0.717489
0.755123
0.820334
0.896575
0.98839
1.059765
1.110376
1.151903
1.189213
1.208679
1.216465
1.247935
1.285245
1.278107
1.194404
1.076635
0.971519
0.866079
0.778807
0.73436
0.763234
0.839151
0.965355
1.150281
1.315741
1.465304
1.53603
1.537328
1.492232
1.391658
1.26805
1.133411
0.980279
0.827796
0.708405
0.628271
0.602316
0.701592
0.918961
1.138277
1.309577
1.462384
1.540897
1.540248
1.503587
1.429292
1.317039
1.18532
1.051005
0.924152
0.816441
0.747661
0.714245
0.718138
0.78854
0.891385
0.9965
1.100967
1.209652
1.305684
1.367326
1.411124
1.385494
1.288489
1.154174
1.014669
0.897873
0.804761
0.737928
0.716516
0.759016
0.87419
1.030241
1.167476
1.284596
1.385494
1.447785
1.458167
1.431239
1.358891
1.259615
1.15093
1.034459
0.934858
0.866403
0.833311
0.824876
0.857319
0.92253
1.011749
1.111025
1.18532
1.229118
1.282649
1.308604
1.278107
1.19343
1.097399
1.028619
0.963408
0.876136
0.79438
0.747013
0.74539
0.816116
0.910202
1.024726
1.155796
1.277783
1.346887
1.431239
1.521755
1.519484
1.436105
1.310226
1.165529
1.017913
0.899495
0.833311
0.803464
0.830067
0.940698
1.130815
1.303413
1.412422
1.472442
1.480228
1.444865
1.360837
1.23658
1.103563
0.986767
0.897549
0.840449
0.824227
0.830716
0.84272
0.893331
0.982874
1.098372
1.224251
1.341371
1.417937
1.434483
1.419884
1.364406
1.262534
1.126598
0.968275
0.821956
0.719436
0.676611
0.706134
0.831365
0.993905
1.151903
1.306333
1.434159
1.511049
1.537653
1.525
1.484121
1.391334
1.270645
1.139899
1.002016
0.869648
0.76583
0.712947
0.71976
0.811899
0.929668
1.045814
1.117513
1.143468
1.178831
1.221332
1.285245
1.373166
1.412422
1.377708
1.285893
1.174613
1.066902
0.994554
0.956271
0.952702
1.011424
1.102265
1.197324
1.290436
1.374139
1.439999
1.477633
1.473091
1.409826
1.296924
1.176236
1.073066
0.980279
0.883274
0.799895
0.732738
0.706134
0.752528
0.85667
1.040299
1.258641
1.424101
1.511374
1.53895
1.51624
1.431563
1.317363
1.197324
1.077933
0.965679
0.882625
0.844018
0.843693
0.887167
0.963084
1.061387
1.162934
1.268374
1.365055
1.433834
1.462709
1.441296
1.361162
1.234309
1.079231
0.918961
0.772643
0.6685
0.616591
0.667202
0.826823
1.018562
1.209003
1.375761
1.483797
1.531164
1.514293
1.454922
1.353375
1.218412
1.077933
0.944591
0.834285
0.766478
0.741173
0.758368
0.823254
0.972168
1.151579
1.296275
1.407231
1.476984
1.494179
1.472117
1.425399
1.331963
1.218736
1.108105
1.003314
0.918637
0.85959
0.827147
0.807357
0.809628
0.838827
0.901442
0.993905
1.116865
1.26805
1.394254
1.465304
1.462709
1.384521
1.268374
1.15093
1.050032
0.972492
0.931614
0.924152
0.933885
0.981577
1.05652
1.143144
1.229118
1.321581
1.417613
1.472117
1.469197
1.404635
1.294329
1.169098
1.038352
0.903713
0.777834
0.686344
0.633786
0.639626
0.73436
0.866079
1.034135
1.212896
1.335207
1.390685
1.413071
1.4108
1.354673
1.264157
1.141521
1.007856
0.900469
0.843369
0.831689
0.851804
0.921881
1.019211
1.127895
1.229442
1.314119
1.37641
1.403338
1.403662
1.359864
1.269672
1.166503
1.056845
0.953675
0.870621
0.827147
0.80249
0.782376
0.809303
0.866728
0.929668
1.009478
1.141197
1.299195
1.413395
1.469522
1.448758
1.365055
1.234633
1.083773
0.946538
0.846613
0.795353
0.793406
0.842395
0.928045
1.026024
1.1253
1.221656
1.297573
1.346562
1.391658
1.386792
1.299195
1.170071
1.031539
0.893331
0.774265
0.699646
0.663958
0.659092
0.699646
0.788215
0.933885
1.109403
1.282
1.39912
1.455896
1.479255
1.448758
1.363433
1.258966
1.150281
1.050681
0.967302
0.917015
0.896251
0.903713
0.968599
1.057494
1.147686
1.235931
1.311524
1.342993
1.336829
1.289787
1.197648
1.086692
0.980279
0.894953
0.855373
0.834609
0.836231
0.855697
0.897549
0.961786
1.044841
1.132762
1.209652
1.269672
1.298871
1.299844
1.266752
1.182724
1.096425
0.990336
0.890411
0.824876
0.822605
0.830391
0.864457
0.932912
1.01402
1.124975
1.247935
1.367326
1.454274
1.483148
1.466926
1.412746
1.31347
1.206732
1.092208
0.972817
0.86251
0.792757
0.778482
0.803139
0.87711
1.00818
1.154823
1.286542
1.381601
1.42475
1.420857
1.391334
1.31639
1.215492
1.110376
1.012073
0.914095
0.850506
0.820659
0.819685
0.844666
0.901766
0.992607
1.092532
1.181751
1.237553
1.254099
1.247286
1.230416
1.185969
1.155472
1.148659
1.094154
1.01694
0.97671
0.967626
0.966653
0.993256
1.050356
1.117189
1.171045
1.196026
1.20803
1.212572
1.189862
1.140873
1.107456
1.08215
1.048734
1.012398
0.985145
0.986443
0.991958
1.007856
1.078582
1.171369
1.255721
1.320608
1.370895
1.398147
1.3962
1.372841
1.295302
1.182075
1.084097
0.98839
0.898198
0.832987
0.838502
0.877758
0.933236
1.015317
1.115891
1.207705
1.280703
1.337803
1.351753
1.34202
1.291409
1.207057
1.136655
1.049383
0.952702
0.883274
0.84564
0.834609
0.836556
0.880354
0.983848
1.115891
1.232038
1.313146
1.361811
1.375437
1.372841
1.348184
1.306657
1.247286
1.160338
1.060738
0.980928
0.941347
0.932587
0.953027
1.023428
1.114269
1.197324
1.255072
1.287516
1.29076
1.273241
1.233336
1.150281
1.051978
1.003314
0.998771
0.994878
0.983848
0.984172
0.988714
1.01986
1.098048
1.190511
1.287516
1.374788
1.43935
1.458167
1.440323
1.393929
1.294329
1.175911
1.044841
0.919935
0.822281
0.768749
0.759665
0.781727
0.870297
0.9965
1.134384
1.263508
1.361486
1.428643
1.454922
1.434808
1.351104
1.206732
1.038677
0.881976
0.749608
0.667851
0.669473
0.756745
0.896251
1.057818
1.190186
1.312497
1.414693
1.488988
1.526946
1.530191
1.498072
1.401391
1.247286
1.063982
0.881327
0.723005
0.610427
0.593232
0.671096
0.795677
0.941996
1.092857
1.22782
1.332612
1.416315
1.467251
1.484446
1.45914
1.36473
1.229767
1.069822
0.908904
0.773291
0.681153
0.641897
0.682451
0.819361
0.990336
1.122704
1.208679
1.28784
1.34786
1.362135
1.353375
1.331963
1.297249
1.238202
1.163258
1.090586
1.018237
0.969248
0.949133
0.960489
1.017264
1.100643
1.193755
1.280054
1.34786
1.379979
1.382574
1.367326
1.311848
1.221332
1.105834
0.998123
0.911175
0.850506
0.826823
0.830391
0.869972
0.948485
1.040623
1.138926
1.23658
1.304711
1.335532
1.341371
1.315092
1.231065
1.11654
0.980928
0.835582
0.720085
0.650981
0.625026
0.631839
0.705485
0.834609
1.015317
1.172018
1.269996
1.323852
1.357917
1.3537
1.293031
1.196999
1.140548
1.097074
1.051654
1.006558
0.973466
0.954324
0.966004
1.01402
1.08507
1.168125
1.251504
1.329367
1.387765
1.400418
1.361486
1.268374
1.156121
1.023104
0.872568
0.755772
0.713272
0.707756
0.73728
0.795353
0.889762
1.021157
1.171369
1.303413
1.39912
1.469197
1.495152
1.473415
1.386467
1.264805
1.145739
1.033486
0.936805
0.876136
0.857644
0.874514
0.938103
1.023428
1.114269
1.20511
1.282974
1.336505
1.360513
1.355322
1.312497
1.235607
1.138277
1.028944
0.933885
0.865106
0.834609
0.835907
0.873865
0.953351
1.037703
1.118487
1.193755
1.256695
1.299844
1.332936
1.350131
1.306008
1.218736
1.109078
0.99131
0.877758
0.780105
0.691535
0.61432
0.582526
0.599072
0.67726
0.852453
1.059116
1.272267
1.465953
1.561985
1.528568
1.427995
1.309901
1.186942
1.084746
1.004611
0.950431
0.913446
0.855373
0.772967
0.713272
0.732089
0.796326
0.886843
1.065604
1.335532
1.541546
1.596699
1.527271
1.397498
1.252153
1.118162
1.00818
0.946862
0.921557
0.941671
1.02797
1.137304
1.240797
1.330989
1.409826
1.447785
1.449083
1.41372
1.324825
1.20803
1.083124
0.979306
0.892358
0.845964
0.849533
0.871594
0.91961
0.992607
1.075337
1.165205
1.244691
1.299844
1.318337
1.313146
1.278432
1.190511
1.078582
0.963408
0.85959
0.779131
0.738577
0.737604
0.772967
0.853751
0.965031
1.093505
1.201866
1.294004
1.347536
1.360188
1.342669
1.271943
1.147361
0.990336
0.830067
0.693481
0.580904
0.528021
0.551056
0.633786
0.750581
0.873541
1.04549
1.231065
1.377059
1.473415
1.535057
1.518511
1.404311
1.254424
1.104536
0.953675
0.807032
0.713272
0.690237
0.670122
0.694455
0.766803
0.881003
1.044841
1.183698
1.268699
1.287191
1.260912
1.212247
1.161312
1.166827
1.163907
1.127895
1.085395
1.051005
1.029268
1.022779
1.051978
1.107456
1.176884
1.250206
1.307306
1.331314
1.320608
1.287516
1.222305
1.136979
1.049707
0.983523
0.939725
0.901766
0.878732
0.872243
0.894304
0.957569
1.04257
1.139575
1.235282
1.305359
1.338127
1.327745
1.277458
1.180129
1.056196
0.925774
0.816765
0.739875
0.706783
0.711649
0.741173
0.81125
0.923179
1.037703
1.125949
1.187266
1.234633
1.259939
1.258317
1.224576
1.188888
1.136979
1.04549
0.939076
0.834933
0.770372
0.738577
0.736955
0.797299
0.907606
1.074364
1.234958
1.346887
1.411449
1.406258
1.361162
1.280378
1.166178
1.041272
0.928045
0.826498
0.75999
0.742795
0.775238
0.844018
0.935507
1.032188
1.11654
1.182724
1.227171
1.269672
1.311524
1.320932
1.277783
1.197972
1.089612
0.97087
0.873865
0.811574
0.790486
0.800544
0.857319
0.950756
1.067551
1.203163
1.310226
1.384196
1.419559
1.435132
1.421506
1.333261
1.202839
1.060738
0.929019
0.820659
0.761288
0.760314
0.813521
0.915068
1.034459
1.159365
1.272592
1.350455
1.385494
1.387116
1.365379
1.297897
1.187266
1.069822
0.961462
0.865106
0.799895
0.796975
0.839476
0.919286
1.029592
1.149957
1.254099
1.330665
1.376734
1.386792
1.378032
1.346238
1.274538
1.184022
1.090586
0.992932
0.904686
0.85667
0.845964
0.857968
0.915068
1.007207
1.111998
1.215816
1.314119
1.385494
1.413395
1.41372
1.378032
1.295302
1.186293
1.068849
0.950431
0.858617
0.800868
0.77978
0.801517
0.883923
0.980928
1.074364
1.160014
1.236904
1.287191
1.292707
1.274214
1.194079
1.053276
0.894953
0.746039
0.628919
0.583175
0.642546
0.815468
0.98839
1.138602
1.25053
1.320283
1.362135
1.405933
1.426372
1.426048
1.40496
1.336829
1.25929
1.169098
1.063333
0.966653
0.898847
0.866079
0.865754
0.902091
0.965355
1.049058
1.158716
1.267076
1.351429
1.399769
1.412097
1.387441
1.306333
1.198621
1.089937
0.989363
0.908579
0.86543
0.850831
0.868026
0.942645
1.040948
1.142819
1.24242
1.338451
1.404311
1.418586
1.39328
1.307955
1.189537
1.072093
0.963733
0.87711
0.813845
0.776211
0.757394
0.771994
0.825525
0.879056
0.926099
0.991958
1.05944
1.117189
1.195053
1.271294
1.301466
1.274214
1.198946
1.106158
1.006558
0.9394
0.917664
0.932263
0.990012
1.081502
1.182075
1.274538
1.346887
1.391334
1.392632
1.352078
1.27908
1.17364
1.072417
0.97671
0.894629
0.840773
0.820334
0.810601
0.813845
0.865106
0.941023
1.015966
1.084746
1.181426
1.28492
1.335856
1.352402
1.327745
1.252801
1.152228
1.046138
0.934858
0.850506
0.819685
0.827147
0.871594
0.926099
0.980928
1.037703
1.104536
1.179804
1.231389
1.296924
1.3537
1.323852
1.217114
1.103887
1.00234
0.910526
0.850182
0.826174
0.839476
0.90566
1.00234
1.106158
1.201541
1.281676
1.344291
1.366677
1.356295
1.316066
1.233336
1.103238
0.95692
0.822605
0.719436
0.659092
0.652603
0.704512
0.813521
0.941996
1.070471
1.187915
1.282649
1.336505
1.367326
1.365379
1.302764
1.194079
1.069822
0.943943
0.838502
0.747986
0.683424
0.662011
0.691859
0.760314
0.874839
1.018237
1.177533
1.311524
1.378357
1.393605
1.378357
1.318012
1.209328
1.088315
0.987741
0.940374
0.91961
0.913446
0.921557
0.964706
1.037054
1.124327
1.224576
1.327096
1.39036
1.410475
1.398796
1.345913
1.25053
1.146388
1.040623
0.944267
0.864781
0.827147
0.819036
0.835258
0.903713
0.998447
1.097074
1.207705
1.307306
1.366353
1.381276
1.357917
1.282649
1.160663
1.003962
0.837529
0.684397
0.553327
0.47449
0.467353
0.563709
0.716516
0.887491
1.072093
1.235931
1.351753
1.40788
1.447136
1.434808
1.35078
1.243069
1.139575
1.021482
0.846613
0.63411
0.442371
0.310652
0.298648
0.402466
0.610427
0.862186
1.111349
1.284596
1.335856
1.306982
1.246313
1.168774
1.088963
1.065929
1.14217
1.209652
1.250206
1.256695
1.235607
1.215167
1.200244
1.187266
1.187915
1.20219
1.203163
1.197972
1.206732
1.198297
1.171694
1.153525
1.124975
1.094803
1.051978
1.012722
0.984496
0.9965
1.054574
1.138602
1.231389
1.31931
1.388089
1.416639
1.412746
1.379654
1.300493
1.19635
1.085395
0.97671
0.88522
0.829094
0.806708
0.808979
0.854399
0.93129
1.026673
1.126598
1.218412
1.285569
1.314768
1.31347
1.271294
1.185644
1.086692
0.986119
0.892682
0.820983
0.792109
0.790811
0.816441
0.894304
0.995852
1.103238
1.202839
1.289787
1.342345
1.355971
1.330016
1.245988
1.125624
0.995852
0.872568
0.781402
0.723005
0.703214
0.714894
0.768101
0.865106
0.984172
1.106807
1.219061
1.309901
1.359215
1.366028
1.330989
1.242744
1.12822
1.009478
0.896251
0.804761
0.752528
0.730791
0.717489
0.73144
0.748635
0.745715
0.748635
0.809952
0.89982
1.026024
1.213221
1.377708
1.428968
1.383223
1.257992
1.108429
1.000394
0.949458
0.928045
0.939076
0.977035
1.023428
1.059116
1.087017
1.102914
1.095128
1.086044
1.128869
1.174613
1.191159
1.152552
1.071444
0.991634
0.941996
0.917015
0.906957
0.939725
1.017913
1.115242
1.210301
1.293355
1.355322
1.372192
1.348833
1.287516
1.178182
1.047761
0.923503
0.819361
0.732089
0.679531
0.686344
0.725924
0.794704
0.89398
1.018562
1.142495
1.23658
1.29076
1.294653
1.261237
1.1824
1.078906
1.002016
0.927072
0.855373
0.81417
0.816116
0.848235
0.894953
0.969573
1.058791
1.137304
1.188888
1.214194
1.175262
1.088315
0.999096
0.932263
0.881003
0.877758
0.930316
0.972168
0.973141
0.969248
0.972817
0.99942
1.064956
1.156121
1.262859
1.351753
1.407555
1.421506
1.411449
1.366353
1.268374
1.132762
0.984496
0.859266
0.761936
0.707432
0.726573
0.799246
0.893331
1.005909
1.118487
1.219061
1.301142
1.348833
1.350455
1.317688
1.249882
1.141521
1.005909
0.882625
0.772967
0.691535
0.650981
0.635408
0.673367
0.752203
0.836231
0.92253
1.025699
1.122704
1.17656
1.21387
1.227496
1.177533
1.101941
1.060089
1.039325
0.999096
0.964057
0.934534
0.91377
0.941996
1.038352
1.17948
1.323852
1.418586
1.468224
1.443243
1.371868
1.269347
1.154174
1.054898
0.989039
0.957893
0.912797
0.87711
0.858941
0.856995
0.887491
0.947511
1.030241
1.125624
1.204786
1.263183
1.318012
1.350131
1.321257
1.251828
1.163258
1.053925
0.949458
0.874514
0.84272
0.837205
0.866403
0.952702
1.064631
1.177533
1.272592
1.350455
1.394578
1.404311
1.379005
1.302115
1.19635
1.074364
0.952702
0.851804
0.787891
0.765181
0.764532
0.80249
0.900793
1.010127
1.108754
1.211923
1.318986
1.382574
1.396525
1.368624
1.285893
1.169747
1.046138
0.929992
0.822605
0.745066
0.687966
0.648385
0.658767
0.711974
0.772967
0.858293
0.991958
1.152552
1.279729
1.396525
1.46498
1.446163
1.335532
1.189862
1.067227
0.969897
0.909228
0.886194
0.907606
0.982225
1.071444
1.160014
1.24534
1.306657
1.329692
1.324501
1.314443
1.250855
1.148659
1.044841
0.933561
0.842395
0.768425
0.719436
0.707756
0.756421
0.882301
1.061062
1.223278
1.334883
1.393605
1.410151
1.400418
1.361162
1.280703
1.178182
1.067875
0.958866
0.861212
0.796326
0.777834
0.796975
0.867052
0.978981
1.099345
1.206408
1.285245
1.327096
1.320608
1.285569
1.211274
1.109403
1.002665
0.937129
0.887167
0.847262
0.844342
0.832338
0.840773
0.895602
0.975088
1.053925
1.128544
1.211274
1.269672
1.303088
1.335207
1.306982
1.209976
1.081502
0.947836
0.827472
0.756421
0.76291
0.818712
0.900144
1.00818
1.11654
1.209976
1.29076
1.357268
1.388414
1.380952
1.334234
1.234633
1.099994
0.960164
0.838827
0.735333
0.682451
0.68829
0.738253
0.835907
0.950431
1.051005
1.15385
1.245988
1.29076
1.2966
1.283947
1.223603
1.1107
0.967302
0.816441
0.681477
0.579281
0.56598
0.650007
0.82001
1.011424
1.1678
1.285893
1.380952
1.447136
1.481201
1.478606
1.435132
1.32807
1.187266
1.039001
0.900469
0.781727
0.737928
0.759341
0.793082
0.87127
1.005909
1.141197
1.244042
1.318986
1.367001
1.37933
1.361162
1.308928
1.209003
1.095128
0.983523
0.880354
0.800544
0.761936
0.765181
0.795353
0.872568
0.981577
1.104861
1.217438
1.306657
1.361486
1.372517
1.360188
1.30244
1.192782
1.053276
0.913446
0.783349
0.675313
0.632488
0.651305
0.711974
0.832014
1.002016
1.163258
1.299844
1.397822
1.432537
1.429617
1.403987
1.321581
1.209328
1.075662
0.917664
0.771994
0.67142
0.628595
0.609129
0.635732
0.728844
0.865754
1.043219
1.292707
1.479579
1.549981
1.547385
1.491259
1.384521
1.263832
1.14509
1.024402
0.916366
0.841098
0.78854
0.75123
0.744093
0.754474
0.771345
0.822281
0.921232
1.057169
1.207705
1.371219
1.459789
1.450056
1.357917
1.218087
1.083124
0.983523
0.936481
0.929343
0.959191
1.03381
1.118162
1.195377
1.262859
1.311524
1.319634
1.306008
1.269023
1.194404
1.101941
1.019535
0.95108
0.864457
0.78562
0.733062
0.718138
0.758368
0.857644
1.01986
1.193106
1.329367
1.423453
1.453625
1.438701
1.385494
1.286867
1.162609
1.040623
0.929019
0.841422
0.79957
0.796002
0.820334
0.884572
0.957893
1.036081
1.120758
1.19927
1.253775
1.312172
1.357268
1.345913
1.274863
1.160014
1.034783
0.929668
0.842071
0.80249
0.80541
0.842395
0.911499
0.987416
1.046787
1.075337
1.084097
1.056845
1.020508
1.02505
1.04841
1.074688
1.068849
1.046787
1.038677
1.011424
0.982225
0.969573
0.985794
1.031863
1.090261
1.15385
1.213545
1.268699
1.308928
1.327096
1.294653
1.172991
1.001691
0.812872
0.638004
0.54846
0.569548
0.662336
0.81417
1.050032
1.239824
1.361162
1.446812
1.502614
1.528893
1.528568
1.499694
1.420208
1.307955
1.18532
1.065929
0.960813
0.874514
0.830067
0.819361
0.847586
0.925774
1.041921
1.153201
1.253126
1.334883
1.378681
1.383223
1.361486
1.278107
1.169423
1.049383
0.932263
0.836556
0.77978
0.75999
0.776536
0.844018
0.943618
1.051329
1.155472
1.243069
1.302764
1.333909
1.329692
1.280703
1.181102
1.066253
0.941023
0.800544
0.677909
0.613996
0.607507
0.651305
0.786918
0.951404
1.116216
1.268699
1.373814
1.432861
1.459464
1.447785
1.383547
1.26805
1.1107
0.939076
0.774589
0.632488
0.561762
0.595503
0.715867
0.88522
1.056196
1.213545
1.370246
1.508454
1.57334
1.559714
1.486717
1.363433
1.227496
1.099021
0.981577
0.881003
0.808979
0.77686
0.783349
0.83396
0.923179
1.050681
1.184022
1.294329
1.372517
1.417613
1.420857
1.37349
1.271294
1.140548
1.018562
0.914095
0.840773
0.812223
0.81709
0.850831
0.932263
1.033486
1.124651
1.190186
1.223927
1.224251
1.201217
1.18824
1.18532
1.144441
1.097399
1.054574
0.993256
0.924477
0.888465
0.890736
0.933885
1.014669
1.115891
1.2249
1.326123
1.402689
1.430914
1.422479
1.379005
1.281676
1.157094
1.031215
0.921232
0.834609
0.7827
0.757719
0.762585
0.820659
0.92253
1.04549
1.163258
1.246637
1.274538
1.259615
1.222305
1.158716
1.076959
1.002665
0.938427
0.860888
0.784647
0.755448
0.762261
0.83104
0.993905
1.143144
1.251828
1.338776
1.391009
1.38517
1.324501
1.248584
1.131464
0.9965
0.871919
0.776211
0.704512
0.68018
0.720085
0.809303
0.957893
1.132437
1.284271
1.402364
1.48769
1.535057
1.539275
1.514293
1.459789
1.359539
1.238526
1.114594
0.997798
0.898522
0.835907
0.811899
0.825525
0.892682
0.988065
1.094803
1.20219
1.294653
1.356295
1.373166
1.356295
1.297897
1.200244
1.09091
0.986443
0.891385
0.817414
0.782051
0.77394
0.795353
0.843693
0.897224
0.955946
1.016615
1.05652
1.089612
1.130491
1.167476
1.170396
1.127895
1.076959
1.009802
0.943294
0.897873
0.877434
0.883923
0.924477
0.994878
1.074364
1.15385
1.217438
1.256695
1.248259
1.221656
1.170071
1.077284
0.986767
0.920259
0.870621
0.818063
0.778807
0.775887
0.834609
0.955946
1.097074
1.224251
1.326772
1.407231
1.449732
1.427995
1.345913
1.229442
1.093181
0.949133
0.826174
0.788215
0.82812
0.902415
0.95692
1.002989
1.078257
1.15677
1.235607
1.307955
1.366677
1.399445
1.405609
1.381276
1.301142
1.181751
1.051329
0.923828
0.810601
0.73436
0.70873
0.726573
0.793406
0.907282
1.028944
1.139575
1.21679
1.276485
1.31639
1.352078
1.360837
1.302764
1.218087
1.119784
1.014669
0.930965
0.880354
0.866728
0.878407
0.92545
0.991634
1.063982
1.130166
1.189862
1.219385
1.253775
1.300817
1.293031
1.218412
1.144117
1.075986
0.996825
0.921881
0.883923
0.883923
0.917988
0.995852
1.084421
1.162609
1.22782
1.274863
1.284271
1.264157
1.208679
1.117189
1.003638
0.908579
0.83688
0.783673
0.795028
0.852128
0.909877
0.981577
1.078906
1.187591
1.2966
1.391658
1.460113
1.475686
1.443243
1.367975
1.242744
1.094154
0.95108
0.841098
0.796651
0.813521
0.833311
0.844342
0.883598
0.963408
1.051005
1.133086
1.235931
1.338127
1.423777
1.457193
1.421506
1.338127
1.23366
1.115567
1.007531
0.918637
0.864457
0.841098
0.855048
0.930316
1.021806
1.12238
1.22198
1.29952
1.335207
1.335207
1.317039
1.250206
1.15093
1.044841
0.939725
0.858293
0.804112
0.786269
0.804437
0.860888
0.955622
1.060413
1.157743
1.233984
1.282
1.30763
1.312821
1.258966
1.129842
0.978981
0.855373
0.73728
0.652279
0.663309
0.760314
0.913122
1.049707
1.148659
1.229118
1.304062
1.375437
1.427021
1.432537
1.387116
1.29076
1.151254
0.994878
0.860564
0.770047
0.70873
0.693806
0.701917
0.768101
0.890087
1.02505
1.165854
1.28492
1.376086
1.430914
1.433834
1.410151
1.354024
1.27389
1.176884
1.056845
0.936481
0.839151
0.768749
0.742146
0.770696
0.840773
0.947836
1.096101
1.25929
1.391658
1.458816
1.463682
1.408204
1.298546
1.175587
1.057494
0.949782
0.859915
0.816116
0.816441
0.849208
0.927721
1.025375
1.121082
1.202839
1.26221
1.295626
1.305684
1.311199
1.290111
1.236255
1.154499
1.068524
1.011749
0.972817
0.942969
0.923828
0.936805
1.003314
1.087341
1.174938
1.25637
1.320283
1.3537
1.354997
1.330989
1.249557
1.119136
0.973466
0.843693
0.749932
0.707756
0.757719
0.836556
0.930316
1.032512
1.13925
1.237553
1.318986
1.383223
1.414368
1.402364
1.34494
1.223603
1.062684
0.904686
0.768101
0.684073
0.67726
0.743119
0.847586
0.983199
1.089937
1.151903
1.200892
1.247286
1.286867
1.315417
1.339749
1.341047
1.298222
1.208679
1.106807
1.00526
0.921881
0.873865
0.839476
0.833311
0.878732
0.955298
1.055223
1.181102
1.300168
1.385494
1.419884
1.400418
1.302764
1.172018
1.03965
0.914744
0.80541
0.738253
0.718463
0.742795
0.819036
0.9394
1.070795
1.195701
1.311199
1.403662
1.458167
1.469522
1.41372
1.289787
1.153201
1.04257
0.947511
0.86835
0.830067
0.827796
0.842395
0.905335
0.981901
1.066902
1.158067
1.260263
1.367326
1.434483
1.448434
1.391983
1.281027
1.150281
1.021482
0.909228
0.839151
0.810926
0.802166
0.818387
0.878083
0.992607
1.100643
1.166503
1.228145
1.280378
1.31055
1.341371
1.332612
1.274538
1.182724
1.068849
0.964382
0.88814
0.851155
0.844018
0.882301
0.959191
1.052627
1.154174
1.244691
1.311199
1.345913
1.360837
1.321257
1.212896
1.061711
0.912148
0.78562
0.701917
0.692184
0.762261
0.871919
0.975412
1.050356
1.126922
1.204786
1.281676
1.348833
1.378681
1.371219
1.316066
1.211599
1.067227
0.893331
0.715867
0.591934
0.511151
0.479032
0.51472
0.672069
0.881003
1.110376
1.287516
1.412746
1.464331
1.440972
1.386143
1.278756
1.149308
1.03381
0.941996
0.868999
0.819685
0.803788
0.823903
0.885545
0.976386
1.08507
1.182075
1.270645
1.336829
1.374788
1.38517
1.367326
1.303413
1.211923
1.107132
1.007531
0.920259
0.869972
0.852453
0.86543
0.929019
1.018237
1.122055
1.223603
1.307306
1.358242
1.367001
1.343318
1.280378
1.177209
1.061062
0.959515
0.860888
0.787566
0.757719
0.768425
0.807032
0.883274
0.97963
1.081177
1.174289
1.245015
1.269023
1.25345
1.204461
1.098696
0.968275
0.840773
0.726573
0.623729
0.562087
0.53743
0.559491
0.629244
0.777509
1.003638
1.176236
1.272267
1.316066
1.325474
1.315092
1.304711
1.302764
1.251504
1.166503
1.064631
0.95984
0.87711
0.82293
0.79957
0.826823
0.885545
1.000394
1.148983
1.270321
1.326447
1.308279
1.235282
1.120758
1.005909
0.903713
0.850831
0.841747
0.904037
0.985145
1.023753
1.063982
1.129842
1.19927
1.252801
1.294653
1.32515
1.317363
1.274863
1.223927
1.147686
1.055223
0.982874
0.938103
0.930316
0.942969
0.952378
0.954649
0.987416
1.065604
1.154823
1.242095
1.315741
1.365055
1.37057
1.344616
1.26221
1.098048
0.894953
0.705161
0.541972
0.412524
0.406035
0.558518
0.711974
0.871594
1.03381
1.187915
1.331963
1.469197
1.556794
1.57334
1.547385
1.469522
1.352726
1.232038
1.113945
1.006233
0.905011
0.844666
0.831365
0.85959
0.923828
1.017913
1.101616
1.183373
1.271943
1.330016
1.365379
1.395551
1.375437
1.280703
1.155472
1.032837
0.929668
0.868999
0.85148
0.858617
0.904686
0.990661
1.094479
1.204786
1.306657
1.371868
1.396525
1.385818
1.326123
1.234309
1.126598
1.004936
0.880029
0.781727
0.735333
0.730467
0.760639
0.841098
0.943294
1.043219
1.132762
1.201866
1.247935
1.269996
1.284271
1.273565
1.216465
1.124651
1.002989
0.871919
0.749932
0.678882
0.661038
0.712623
0.865754
1.071769
1.239824
1.380628
1.477633
1.50456
1.488663
1.444541
1.343967
1.212247
1.069498
0.918312
0.761936
0.642221
0.587068
0.574415
0.638328
0.82293
1.024077
1.117513
1.152228
1.195053
1.245664
1.327745
1.41372
1.430914
1.354349
1.211599
1.049707
0.928694
0.860239
0.826174
0.829418
0.90566
1.039325
1.177209
1.291409
1.375112
1.415991
1.406907
1.371543
1.296275
1.206408
1.124327
1.041921
0.963733
0.898522
0.858617
0.843369
0.87711
0.95984
1.059765
1.158716
1.245664
1.315092
1.347536
1.352726
1.324825
1.248584
1.147361
1.037703
0.93129
0.841747
0.791784
0.778807
0.790162
0.848235
0.940049
1.03965
1.137628
1.221007
1.278432
1.300168
1.297897
1.258641
1.172342
1.061387
0.944591
0.841422
0.752528
0.690561
0.66266
0.662985
0.69121
0.759341
0.877434
1.010451
1.129842
1.2395
1.340074
1.378357
1.314119
1.189537
1.062684
0.955622
0.853426
0.795353
0.786918
0.803139
0.866403
0.99131
1.114269
1.243393
1.366677
1.446812
1.464331
1.433185
1.34202
1.186617
1.011749
0.847586
0.726249
0.647736
0.644492
0.706783
0.784971
0.903713
1.0536
1.196675
1.313146
1.398147
1.447136
1.451678
1.428643
1.367001
1.258641
1.13633
1.014669
0.905011
0.818063
0.770372
0.747337
0.755123
0.816441
0.907606
1.021806
1.144766
1.246313
1.303088
1.316066
1.304062
1.229118
1.115567
0.98839
0.887816
0.82293
0.781078
0.775563
0.781078
0.821632
0.914744
1.028295
1.118811
1.174938
1.19927
1.17072
1.118811
1.043219
0.951404
0.887167
0.863483
0.860564
0.916041
0.993256
1.034783
1.035432
1.059116
1.111998
1.180778
1.252477
1.317688
1.362459
1.371219
1.346238
1.282
1.179804
1.066253
0.954649
0.853426
0.777834
0.746364
0.748959
0.790486
0.886194
1.00526
1.124002
1.232687
1.31931
1.362784
1.365379
1.331314
1.245988
1.143144
1.023753
0.900793
0.80541
0.74539
0.71976
0.729818
0.794055
0.904362
1.02797
1.149957
1.261886
1.346887
1.378357
1.35662
1.292382
1.180778
1.043867
0.900469
0.752852
0.619835
0.541323
0.521208
0.542945
0.67142
0.860888
1.049058
1.231713
1.38517
1.480877
1.495476
1.465304
1.391009
1.285893
1.178182
1.065604
0.965031
0.873865
0.801841
0.741173
0.715218
0.75415
0.822281
0.911499
1.042245
1.194728
1.289138
1.316066
1.301791
1.211923
1.078906
0.947836
0.824876
0.741173
0.746688
0.831365
0.921881
1.01694
1.118811
1.214519
1.298222
1.374139
1.426048
1.419559
1.379005
1.314443
1.203163
1.076959
0.967302
0.884572
0.815792
0.792433
0.79438
0.810601
0.870621
0.978981
1.127246
1.261561
1.352078
1.403987
1.416964
1.397822
1.332612
1.223603
1.093181
0.968275
0.857319
0.764207
0.721707
0.727547
0.783673
0.879705
0.994878
1.112971
1.219061
1.304386
1.349807
1.362784
1.357917
1.297573
1.197972
1.077933
0.957893
0.856022
0.786918
0.757394
0.768101
0.821632
0.908579
1.00526
1.089288
1.14509
1.190511
1.209003
1.181102
1.150605
1.115567
1.055871
0.994878
0.952378
0.923828
0.908255
0.906308
0.925774
0.97963
1.044841
1.113296
1.18532
1.261561
1.318012
1.336829
1.341047
1.31055
1.253126
1.158392
1.032188
0.899171
0.7827
0.707107
0.681153
0.712947
0.805735
0.957244
1.137953
1.292058
1.406907
1.472766
1.487041
1.454598
1.364082
1.249233
1.128544
1.010451
0.912473
0.854724
0.8398
0.853426
0.913122
1.017588
1.124327
1.206732
1.263508
1.2966
1.294978
1.269672
1.226522
1.189862
1.151903
1.081502
1.001367
0.923503
0.87419
0.858293
0.869972
0.931614
1.023753
1.127895
1.23074
1.317363
1.374788
1.394578
1.384196
1.327421
1.230091
1.114918
1.00234
0.907606
0.835258
0.804112
0.806384
0.841747
0.920908
1.023428
1.130166
1.229442
1.304386
1.324176
1.285245
1.198297
1.05944
0.912148
0.786269
0.734684
0.758043
0.839476
0.894629
0.907931
0.938427
0.998447
1.080204
1.17948
1.278432
1.34786
1.384845
1.391658
1.358566
1.268374
1.155796
1.026024
0.89106
0.747661
0.629893
0.583175
0.597125
0.686019
0.861861
1.121407
1.360837
1.506183
1.570745
1.577558
1.543817
1.462709
1.342993
1.201541
1.051654
0.917988
0.816765
0.76291
0.733711
0.727547
0.765505
0.827796
0.908904
1.018237
1.179155
1.3391
1.437079
1.458816
1.391334
1.284271
1.161312
1.037703
0.924152
0.843693
0.807357
0.809303
0.861861
0.954973
1.063333
1.174938
1.269023
1.335856
1.375112
1.39036
1.363433
1.277458
1.173965
1.070795
0.966004
0.872243
0.810926
0.784322
0.793406
0.854724
0.94524
1.053276
1.171694
1.280703
1.340722
1.360513
1.360188
1.31055
1.197324
1.041272
0.878083
0.724951
0.593556
0.526075
0.536781
0.596152
0.693157
0.830716
1.023428
1.216465
1.357593
1.45038
1.490934
1.469522
1.374788
1.241446
1.084421
0.907282
0.752528
0.652603
0.615293
0.630866
0.743444
0.912797
1.0536
1.148334
1.233011
1.312172
1.37057
1.423128
1.444216
1.391983
1.291409
1.176236
1.060413
0.954973
0.886194
0.842395
0.808655
0.820659
0.868674
0.935507
1.022779
1.136655
1.267725
1.351104
1.415017
1.415342
1.330665
1.219061
1.103887
0.992283
0.905984
0.868026
0.861537
0.886194
0.955622
1.041596
1.128869
1.211599
1.282649
1.322879
1.337803
1.32515
1.26221
1.163258
1.046138
0.927397
0.824552
0.75707
0.72852
0.719436
0.748959
0.810926
0.88814
0.972168
1.057169
1.123029
1.153201
1.184671
1.196999
1.146063
1.047436
0.959515
0.895278
0.838827
0.821956
0.855373
0.917988
1.014344
1.111025
1.191159
1.281351
1.350131
1.37349
1.361162
1.330989
1.268374
1.178182
1.077608
0.986767
0.909877
0.853102
0.837529
0.863808
0.920583
1.011424
1.121082
1.215492
1.300168
1.378681
1.428643
1.443567
1.417613
1.335532
1.222629
1.102265
0.984496
0.881976
0.812223
0.780753
0.775563
0.806384
0.869648
0.953351
1.042245
1.104536
1.134708
1.144117
1.158067
1.162609
1.125624
1.084421
1.045814
0.996825
0.932263
0.884247
0.866079
0.882625
0.954324
1.037703
1.112971
1.184346
1.24534
1.274863
1.301466
1.337803
1.330341
1.26513
1.165205
1.051654
0.955298
0.872243
0.826174
0.813521
0.837853
0.915068
1.021157
1.126273
1.221332
1.289138
1.319959
1.324176
1.319634
1.256695
1.177858
1.104861
1.023753
0.938427
0.876785
0.851155
0.863808
0.918312
1.007856
1.115242
1.226522
1.318986
1.382574
1.403987
1.398471
1.353051
1.263183
1.149632
1.037703
0.937129
0.854724
0.802166
0.781727
0.783998
0.829094
0.896251
0.977035
1.039001
1.090261
1.136655
1.172342
1.195701
1.185969
1.175587
1.124651
1.026997
0.900469
0.791784
0.738902
0.735333
0.801841
0.930316
1.051978
1.142819
1.226198
1.30763
1.361811
1.395227
1.425724
1.4108
1.327421
1.180778
1.035108
0.913122
0.823903
0.766803
0.735333
0.767452
0.861861
0.974764
1.10259
1.231065
1.32223
1.360513
1.376086
1.365704
1.294653
1.173965
1.040948
0.914419
0.799895
0.715218
0.652927
0.633461
0.715867
0.840124
0.997798
1.17072
1.32807
1.438701
1.497423
1.50748
1.448758
1.337154
1.203163
1.070146
0.963084
0.885545
0.849533
0.837853
0.86543
0.944591
1.044516
1.15093
1.252801
1.3391
1.39036
1.403338
1.376086
1.286542
1.169423
1.055223
0.946862
0.854075
0.80249
0.79146
0.816441
0.884572
0.987416
1.108105
1.225874
1.321257
1.389063
1.414693
1.406258
1.353375
1.248259
1.116216
0.984496
0.863483
0.757719
0.686344
0.641248
0.630542
0.667851
0.756745
0.893007
1.062684
1.209976
1.297897
1.348509
1.365379
1.331638
1.231713
1.103563
0.986443
0.889114
0.82001
0.802166
0.835258
0.912148
1.024726
1.142495
1.256046
1.35078
1.426048
1.454922
1.44227
1.391334
1.269023
1.1107
0.941671
0.784322
0.653576
0.63411
0.721707
0.8398
0.965031
1.079231
1.1824
1.285569
1.373814
1.435457
1.454274
1.440323
1.382574
1.281676
1.166503
1.049383
0.940049
0.854075
0.813845
0.801193
0.817414
0.881652
0.956595
1.032512
1.106158
1.157094
1.172667
1.181751
1.192457
1.161312
1.103887
1.031539
0.950107
0.869648
0.814494
0.796326
0.80541
0.854724
0.944267
1.054249
1.168125
1.272592
1.357268
1.405933
1.417288
1.389063
1.2966
1.165529
1.014993
0.850182
0.673042
0.527048
0.438154
0.414795
0.504338
0.697374
0.952053
1.172991
1.345589
1.463358
1.507156
1.494828
1.440647
1.33618
1.224251
1.113296
1.008504
0.91669
0.867052
0.860239
0.873865
0.927721
1.012722
1.109727
1.206083
1.289462
1.33618
1.341371
1.316066
1.238202
1.120758
0.990012
0.861537
0.753826
0.684397
0.659416
0.664282
0.717165
0.823254
0.944591
1.0682
1.17072
1.248259
1.277458
1.266103
1.217763
1.130166
1.044192
0.987416
0.936156
0.871594
0.826498
0.807357
0.803139
0.846937
0.924477
1.018886
1.11946
1.207057
1.261237
1.264481
1.24534
1.195053
1.113945
1.027646
0.960813
0.910526
0.853426
0.802166
0.765505
0.775887
0.838178
0.921557
1.008829
1.087666
1.141521
1.185644
1.228145
1.243393
1.192457
1.103887
0.986767
0.873541
0.783024
0.707432
0.655847
0.627297
0.633461
0.689264
0.779456
0.89398
1.036081
1.174289
1.241122
1.249557
1.220683
1.13114
1.018562
0.907931
0.806059
0.721382
0.684722
0.682451
0.698997
0.751879
0.817414
0.892682
0.979954
1.068524
1.156445
1.201217
1.207057
1.175587
1.095128
0.978008
0.846289
0.719111
0.617564
0.561113
0.531266
0.529968
0.586743
0.674989
0.769723
0.861537
0.94524
0.993581
0.995527
0.953351
0.859266
0.750581
0.644168
0.548136
0.477085
0.40863
0.355424
0.330118
0.361263
0.454375
0.580579
0.735982
0.87419
0.961137
0.983523
0.971195
0.942645
0.853751
0.74247
0.653576
0.615942
0.626973
0.66558
0.70581
0.727871
0.766154
0.828769
0.911499
1.001367
1.075986
1.1107
1.087666
1.021806
0.89982
0.735333
0.565006
0.441722
0.395329
0.391111
0.41739
0.468326
0.518288
0.584148
0.65455
0.723653
0.78854
0.848884
0.892682
0.910202
0.885545
0.801193
0.685046
0.559816
0.456322
0.389813
0.347962
0.339526
0.357695
0.407008
0.491685
0.585446
0.677584
0.753826
0.810926
0.836231
0.82812
0.781727
0.684397
0.569548
0.461188
0.36905
0.291186
0.245766
0.232464
0.250308
0.318438
0.409604
0.507906
0.606858
0.69705
0.758692
0.783024
0.778807
0.735333
0.651954
0.549434
0.441722
0.341473
0.264583
0.235059
0.235708
0.272369
0.362886
0.463459
0.562087
0.640599
0.685695
0.687966
0.670447
0.634435
0.572793
0.532563
0.509204
0.465081
0.420959
0.44886
0.528021
0.583499
0.649034
0.735657
0.821956
0.899495
0.978657
1.058791
1.110376
1.127571
1.10778
1.021157
0.889114
0.74539
0.606858
0.492009
0.431989
0.469299
0.547487
0.65455
0.797948
0.958542
1.097723
1.216465
1.282
1.293355
1.255072
1.164232
1.038028
0.897873
0.756421
0.640923
0.580255
0.591285
0.626973
0.679531
0.782051
0.931614
1.074688
1.196026
1.292058
1.342669
1.354024
1.338451
1.274214
1.181426
1.085719
0.985794
0.891385
0.823254
0.796002
0.800544
0.856022
0.956595
1.079231
1.200892
1.307306
1.382899
1.414044
1.414044
1.380628
1.278107
1.13114
0.975412
0.830391
0.725276
0.690237
0.743119
0.857319
1.032512
1.201217
1.324501
1.404311
1.445838
1.470495
1.472117
1.453949
1.409178
1.34786
1.271294
1.188888
1.111025
1.039001
0.987741
0.961137
0.971195
1.032837
1.123353
1.232038
1.354997
1.448758
1.506831
1.539924
1.52792
1.465304
1.391658
1.323852
1.249233
1.166503
1.093181
1.050356
1.026997
1.039001
1.100643
1.209652
1.35662
1.490934
1.595401
1.634982
1.615516
1.547061
1.434808
1.323852
1.252477
1.222305
1.202839
1.197324
1.208354
1.245015
1.333909
1.441296
1.545114
1.645039
1.734907
1.794278
1.815691
1.81342
1.770595
1.684945
1.574313
1.455247
1.3537
1.279729
1.252801
1.269023
1.335207
1.437403
1.549008
1.653475
1.755346
1.840996
1.87863
1.878306
1.859813
1.820233
1.7534
1.658666
1.567825
1.49645
1.441945
1.417288
1.415342
1.449083
1.512022
1.591508
1.68462
1.779679
1.871817
1.930215
1.943517
1.880901
1.741396
1.56166
1.376734
1.222629
1.120433
1.104536
1.171694
1.248908
1.353375
1.461735
1.566851
1.66191
1.728094
1.758915
1.744964
1.700193
1.613245
1.488988
1.361486
1.259615
1.17948
1.097399
1.049058
1.01402
1.009153
1.064956
1.14509
1.254099
1.387765
1.517862
1.611299
1.647959
1.634658
1.561012
1.443567
1.312821
1.192782
1.095128
1.039001
1.038352
1.067875
1.134059
1.220683
1.2966
1.350131
1.391009
1.427995
1.443892
1.445189
1.445514
1.412422
1.335532
1.236255
1.138926
1.051654
1.006233
0.995527
1.015966
1.081502
1.1678
1.264157
1.363433
1.446812
1.501316
1.532786
1.54479
1.499694
1.404311
1.29076
1.17364
1.066253
0.976061
0.932587
0.928045
0.955298
1.032512
1.119136
1.196999
1.265779
1.31347
1.332612
1.333261
1.32807
1.295626
1.25637
1.22782
1.181751
1.114269
1.039974
0.993905
0.97671
1.001691
1.068524
1.152876
1.223278
1.269996
1.289462
1.274863
1.251504
1.218736
1.184022
1.150605
1.108105
1.043219
0.95984
0.912797
0.901442
0.922206
0.978981
1.043867
1.111349
1.178182
1.24242
1.31055
1.375112
1.405609
1.379979
1.307306
1.198621
1.075013
0.971519
0.89398
0.865106
0.861861
0.883274
0.938103
1.026024
1.124002
1.203163
1.260263
1.289138
1.295626
1.261561
1.176884
1.09091
1.018237
0.940374
0.869972
0.837529
0.843369
0.87419
0.934534
1.007531
1.09675
1.189862
1.27389
1.325799
1.318012
1.274214
1.207057
1.104212
0.991634
0.936481
0.935507
0.924477
0.904037
0.884572
0.885545
0.934534
1.013371
1.104536
1.204786
1.294004
1.34494
1.354997
1.333909
1.260263
1.144441
1.008829
0.874514
0.75707
0.673691
0.639301
0.638652
0.676286
0.760639
0.875487
1.004936
1.139575
1.265779
1.356944
1.396525
1.390685
1.32515
1.2249
1.100319
0.958218
0.814819
0.682775
0.585121
0.536456
0.568251
0.687966
0.860564
1.028295
1.215167
1.387765
1.465629
1.484446
1.460438
1.380628
1.275512
1.166178
1.058142
0.958542
0.894953
0.860564
0.847911
0.880678
0.937129
0.998447
1.067875
1.154499
1.231389
1.266428
1.278432
1.264805
1.211274
1.127895
1.019535
0.8969
0.786269
0.721707
0.693806
0.713921
0.798597
0.943943
1.123678
1.297573
1.41891
1.476659
1.482175
1.446812
1.356295
1.221656
1.057494
0.896251
0.77686
0.703214
0.679206
0.723329
0.848235
0.97379
1.076959
1.155472
1.227171
1.294329
1.314443
1.307955
1.269996
1.182075
1.0682
0.962435
0.866728
0.801841
0.780753
0.798597
0.8398
0.900469
0.969897
1.042245
1.127895
1.203488
1.236904
1.245015
1.234309
1.169098
1.086368
1.024726
0.954324
0.86835
0.80833
0.821956
0.862835
0.929019
1.013371
1.086044
1.148334
1.196026
1.232362
1.242095
1.233984
1.202515
1.13925
1.0682
0.978981
0.886194
0.803788
0.756097
0.747337
0.768749
0.832338
0.923179
1.026348
1.133086
1.225225
1.291084
1.323852
1.31931
1.268374
1.157743
1.026348
0.893656
0.766478
0.675638
0.64871
0.692508
0.75707
0.852777
0.973141
1.08799
1.184995
1.269023
1.331314
1.36765
1.367001
1.300493
1.181426
1.037054
0.871919
0.680504
0.518288
0.4547
0.459891
0.543918
0.72268
0.968599
1.201541
1.371868
1.488663
1.552252
1.576584
1.553225
1.448434
1.299844
1.146712
1.011749
0.901442
0.840449
0.83104
0.855048
0.921557
1.017264
1.13114
1.246637
1.344291
1.411124
1.447785
1.463033
1.414693
1.300817
1.155472
0.995527
0.847586
0.739226
0.715218
0.760314
0.861861
1.035757
1.20219
1.325799
1.414044
1.474064
1.483797
1.459789
1.417613
1.324501
1.163258
0.957893
0.753501
0.592259
0.496551
0.50012
0.612373
0.813845
1.052952
1.269023
1.429617
1.531164
1.595401
1.625249
1.625574
1.59897
1.512996
1.395876
1.26513
1.135682
1.028619
0.959191
0.92837
0.932587
0.983199
1.064307
1.162934
1.274863
1.373166
1.419235
1.415342
1.387441
1.324825
1.223603
1.133411
1.055547
0.986119
0.91961
0.888465
0.890736
0.922854
0.990012
1.0682
1.144117
1.20511
1.255072
1.291084
1.307306
1.325474
1.332936
1.335856
1.302115
1.215816
1.110052
1.016615
0.957893
0.933561
0.954649
1.020833
1.108429
1.202515
1.291733
1.375112
1.42767
1.453625
1.446812
1.383547
1.285893
1.171694
1.06528
0.994554
0.962435
0.955298
0.975412
1.058791
1.158392
1.247286
1.32223
1.383223
1.426372
1.440647
1.42475
1.359864
1.254748
1.141197
1.032512
0.951404
0.904686
0.91961
0.977359
1.033486
1.09383
1.147361
1.204786
1.266428
1.31639
1.34494
1.360837
1.381276
1.337478
1.263832
1.191159
1.132437
1.081177
1.026024
0.990985
0.988714
1.029917
1.111998
1.214519
1.319634
1.40204
1.458491
1.477308
1.463358
1.430266
1.358891
1.260912
1.151254
1.035432
0.936481
0.876461
0.854399
0.87711
0.951404
1.049058
1.158716
1.268699
1.355971
1.424426
1.448434
1.428319
1.365379
1.262534
1.135682
0.993905
0.866728
0.793731
0.784647
0.815792
0.869972
0.970221
1.086692
1.206408
1.312497
1.391658
1.435132
1.449083
1.435781
1.37057
1.282974
1.18824
1.087341
0.995852
0.935832
0.90274
0.864132
0.855373
0.874514
0.90274
0.949133
1.035108
1.163258
1.285569
1.394903
1.45914
1.425399
1.328718
1.220358
1.133411
1.0682
1.03673
1.03381
1.026024
1.059116
1.100967
1.128544
1.160014
1.220034
1.29076
1.330016
1.359539
1.375437
1.338451
1.257019
1.155796
1.070146
1.000718
0.953675
0.930641
0.943294
1.00234
1.076635
1.171369
1.28784
1.389063
1.452976
1.492881
1.473091
1.399445
1.312497
1.214194
1.114594
1.043543
1.00526
0.981577
0.972817
0.998771
1.059116
1.138602
1.224576
1.307306
1.365704
1.383547
1.373814
1.339749
1.281676
1.202839
1.100643
0.989687
0.907282
0.87419
0.86251
0.866728
0.920908
1.019535
1.132437
1.250206
1.35662
1.41372
1.42475
1.401716
1.338127
1.244691
1.131788
1.017588
0.921557
0.848884
0.814494
0.813521
0.841098
0.903389
0.960489
0.998123
1.03381
1.075662
1.104536
1.156121
1.232038
1.267076
1.219385
1.101941
0.961786
0.854724
0.798922
0.773616
0.777834
0.84272
0.966653
1.088639
1.19635
1.288489
1.370246
1.409178
1.407231
1.359864
1.243717
1.094479
0.939725
0.793731
0.670122
0.605236
0.611076
0.650981
0.70581
0.785944
0.894304
1.029592
1.171045
1.278107
1.340722
1.337478
1.267725
1.149957
1.011749
0.878407
0.763883
0.68018
0.644817
0.643519
0.678557
0.75999
0.861537
0.969573
1.066253
1.13633
1.170071
1.1678
1.126922
1.046463
0.963084
0.86835
0.763559
0.680828
0.635084
0.620484
0.63119
0.681802
0.769398
0.876136
0.980928
1.067875
1.133735
1.161312
1.153525
1.107132
1.000069
0.863159
0.73728
0.616915
0.512448
0.458593
0.467353
0.529319
0.63119
0.768749
0.929343
1.061711
1.149308
1.192133
1.19927
1.181102
1.114594
1.001367
0.855697
0.699321
0.531266
0.357695
0.213647
0.121508
0.109504
0.207158
0.376512
0.588041
0.832338
1.016615
1.100643
1.102265
1.064956
0.9965
0.891709
0.763559
0.638328
0.527048
0.447887
0.406035
0.398249
0.439451
0.513097
0.598747
0.688939
0.755772
0.795028
0.803139
0.785295
0.724951
0.625675
0.526399
0.431665
0.358343
0.320061
0.302866
0.308381
0.329794
0.3976
0.493307
0.593881
0.688939
0.768101
0.815143
0.822281
0.806059
0.761612
0.689588
0.603614
0.51991
0.441722
0.378458
0.345042
0.333362
0.354126
0.431665
0.535483
0.650007
0.763234
0.854724
0.893331
0.886194
0.838502
0.734035
0.607831
0.480654
0.355748
0.269774
0.270747
0.318438
0.362886
0.443669
0.546514
0.652603
0.747661
0.828445
0.887816
0.905011
0.883923
0.808655
0.673367
0.525426
0.399871
0.307732
0.258743
0.269449
0.323305
0.379432
0.463459
0.570522
0.676286
0.77686
0.849208
0.88814
0.901118
0.890736
0.841098
0.781402
0.727547
0.6685
0.590312
0.504987
0.463459
0.450482
0.470272
0.544892
0.638652
0.733711
0.821632
0.881976
0.90274
0.894629
0.864781
0.788215
0.689264
0.589988
0.51472
0.45762
0.430043
0.443345
0.472868
0.528346
0.62308
0.715543
0.774914
0.820983
0.866403
0.878732
0.873541
0.861537
0.853751
0.801193
0.706783
0.60264
0.512448
0.463784
0.444967
0.45762
0.521208
0.609129
0.707756
0.803139
0.885869
0.945889
0.97087
0.957569
0.897549
0.799246
0.679206
0.556247
0.455349
0.372618
0.335958
0.333362
0.356072
0.418039
0.498498
0.581552
0.66266
0.743119
0.800544
0.835582
0.846613
0.826823
0.781727
0.725924
0.656172
0.568575
0.485521
0.436207
0.421283
0.460864
0.535483
0.653252
0.789837
0.903064
0.984496
1.02505
1.026997
0.98839
0.899171
0.788864
0.6831
0.589014
0.514395
0.477085
0.480654
0.521208
0.60556
0.697374
0.78854
0.879705
0.957244
0.99942
0.997798
0.97671
0.90566
0.772967
0.621133
0.478059
0.374241
0.326874
0.341149
0.403115
0.510502
0.646439
0.796002
0.953027
1.10778
1.217763
1.257343
1.250855
1.196026
1.078257
0.938427
0.796002
0.675638
0.592259
0.558193
0.562735
0.580904
0.660065
0.80541
0.969573
1.113945
1.225225
1.30763
1.346562
1.343642
1.30244
1.212896
1.100967
0.984821
0.877434
0.793731
0.749608
0.724627
0.716516
0.757394
0.827472
0.91669
1.01402
1.117513
1.220358
1.304386
1.338127
1.288489
1.175262
1.025375
0.860888
0.710676
0.606858
0.573117
0.621458
0.761612
0.938427
1.104212
1.238851
1.345913
1.42475
1.456545
1.456869
1.43059
1.348833
1.228794
1.07404
0.917988
0.797948
0.723005
0.694455
0.738253
0.889114
1.052303
1.195701
1.307955
1.393929
1.454922
1.481201
1.47601
1.427021
1.329043
1.214843
1.10259
0.994554
0.930316
0.91377
0.925774
0.95692
1.032512
1.132113
1.235607
1.334558
1.415342
1.468873
1.471793
1.431239
1.342993
1.233984
1.124002
1.025699
0.977359
0.964706
0.96795
0.969248
1.002665
1.091883
1.200568
1.317039
1.443892
1.568798
1.65315
1.683647
1.666128
1.582424
1.446487
1.296275
1.144117
1.008504
0.905011
0.855373
0.863808
0.9394
1.063658
1.223927
1.394254
1.540248
1.665154
1.758915
1.795251
1.764106
1.671318
1.551928
1.425075
1.302764
1.201217
1.147037
1.122704
1.124327
1.177533
1.255397
1.341696
1.438376
1.532786
1.601566
1.645039
1.654448
1.607081
1.517213
1.407555
1.295951
1.188564
1.104536
1.07404
1.076311
1.111674
1.209976
1.330665
1.429617
1.492232
1.522404
1.515916
1.484121
1.423777
1.348509
1.300493
1.243717
1.160987
1.101616
1.088639
1.103238
1.138602
1.23366
1.35662
1.471468
1.575611
1.659314
1.714792
1.72777
1.710899
1.658666
1.563931
1.443567
1.31639
1.195053
1.094479
1.03673
1.024077
1.052303
1.138277
1.25053
1.363108
1.468224
1.559065
1.623627
1.649581
1.636604
1.566527
1.461411
1.339425
1.228145
1.139899
1.084097
1.051978
1.031539
1.024402
1.062036
1.136979
1.254748
1.422804
1.608703
1.72777
1.778057
1.769297
1.703113
1.605783
1.508454
1.419235
1.335207
1.263832
1.222954
1.215816
1.252477
1.324501
1.426372
1.526622
1.610325
1.667425
1.730041
1.789736
1.794278
1.722579
1.621031
1.523702
1.428968
1.352726
1.316066
1.314768
1.342993
1.417613
1.49645
1.573989
1.657692
1.732312
1.768324
1.771892
1.751129
1.689811
1.616489
1.567176
1.508454
1.452976
1.418262
1.399445
1.394254
1.421182
1.491259
1.580153
1.663532
1.726147
1.774488
1.801416
1.809851
1.807255
1.780328
1.760537
1.746587
1.691109
1.610001
1.549656
1.520782
1.523702
1.578206
1.665154
1.762159
1.859489
1.93573
1.982773
2.000617
1.992506
1.93573
1.833859
1.741396
1.661585
1.577233
1.506183
1.474713
1.477957
1.511698
1.588913
1.68754
1.795251
1.902638
1.993479
2.052526
2.0814
2.081725
2.028842
1.932162
1.81342
1.691109
1.578531
1.491908
1.455896
1.446812
1.467251
1.54187
1.643417
1.749506
1.873115
2.02138
2.15602
2.269571
2.293903
2.232586
2.132985
2.018461
1.901665
1.797847
1.739449
1.717063
1.718685
1.771892
1.859489
1.961036
2.05577
2.122603
2.142394
2.083347
1.965578
1.821855
1.675212
1.563283
1.520133
1.563283
1.650555
1.729392
1.764755
1.763133
1.794278
1.849432
1.916913
1.989911
2.049606
2.076209
2.066476
2.026571
1.940921
1.82737
1.714143
1.605134
1.502614
1.419884
1.368299
1.347536
1.365704
1.424101
1.508454
1.595077
1.668399
1.720308
1.747235
1.762484
1.746911
1.670021
1.582749
1.512347
1.425724
1.331963
1.267401
1.233011
1.231065
1.284271
1.372841
1.464007
1.545763
1.608054
1.638226
1.631089
1.598321
1.528568
1.419559
1.298222
1.171694
1.055547
0.960813
0.909877
0.901766
0.920583
0.990012
1.078582
1.164556
1.228145
1.277783
1.305684
1.297897
1.244366
1.152876
1.055871
0.931939
0.800544
0.741497
0.763883
0.803464
0.850831
0.917015
1.013371
1.133735
1.25929
1.360188
1.419235
1.434808
1.417288
1.351753
1.228794
1.090261
0.956271
0.841098
0.754474
0.733386
0.75999
0.793406
0.841098
0.898522
0.970546
1.05944
1.145739
1.216141
1.24242
1.243717
1.197648
1.095128
0.961786
0.836556
0.732413
0.640923
0.589663
0.586419
0.61724
0.703539
0.82812
0.964057
1.099021
1.207057
1.266428
1.287191
1.27389
1.206083
1.094479
0.962111
0.829094
0.709703
0.631515
0.592583
0.575064
0.594205
0.650007
0.710676
0.769074
0.819361
0.847911
0.834933
0.813845
0.835907
0.852128
0.852777
0.875163
0.87127
0.843369
0.822281
0.809303
0.803464
0.840449
0.907931
0.99131
1.072093
1.132437
1.162609
1.15385
1.121731
1.051978
0.944267
0.819685
0.709378
0.629893
0.563384
0.516017
0.467353
0.44594
0.493307
0.579281
0.686993
0.846289
1.037703
1.169098
1.240149
1.251504
1.180778
1.069173
0.94524
0.826174
0.721058
0.647412
0.613996
0.603938
0.625351
0.683748
0.757719
0.838178
0.914095
0.986767
1.035108
1.0536
1.036406
0.963733
0.868026
0.756745
0.65455
0.575064
0.532239
0.530941
0.551705
0.609454
0.694455
0.787891
0.873216
0.936156
0.966977
0.957569
0.919286
0.850506
0.75415
0.658443
0.566953
0.473841
0.418688
0.432963
0.470921
0.524128
0.599721
0.688939
0.787891
0.86835
0.933885
0.97087
0.968599
0.939725
0.860239
0.750581
0.629893
0.506284
0.399222
0.326549
0.294106
0.291835
0.332065
0.423879
0.551705
0.690886
0.797299
0.857968
0.862835
0.830067
0.766478
0.652603
0.50888
0.374241
0.275289
0.201967
0.155574
0.137406
0.161089
0.262312
0.395329
0.502391
0.603614
0.690886
0.735009
0.760963
0.785944
0.777509
0.718787
0.615293
0.488116
0.358019
0.247063
0.186719
0.174391
0.204887
0.296053
0.40863
0.516342
0.604263
0.678882
0.708405
0.701268
0.678882
0.623404
0.558518
0.473841
0.384298
0.294755
0.228571
0.199696
0.199696
0.24025
0.310652
0.395978
0.484872
0.555598
0.596801
0.591934
0.552029
0.478708
0.369374
0.249334
0.13189
0.056947
0.023855
0.010553
0.005362
0.003415
0.002118
0.001793
0.068626
0.270098
0.473517
0.593881
0.624702
0.592908
0.493956
0.347313
0.180231
0.073493
0.029694
0.012175
0.006335
0.003415
0.002118
0.002118
0.001469
0.001469
0.048836
0.164333
0.220136
0.209105
0.149085
0.068626
0.028072
0.012499
0.006011
0.005038
0.002118
0.001469
0.001144
0.00082
0.001144
0.00082
0.001144
0.00082
0.001469
0.001469
0.001469
0.001793
0.001793
0.001793
0.001469
0.001793
0.001144
0.00082
0.00082
0.000171
0.000495
0.000495
0.001144
0.00082
0.00082
0.001793
0.001469
0.001144
0.001469
0.001469
0.002118
0.001469
0.00082
0.001144
0.000495
0.00082
0.000495
0.000495
0.00082
0.00082
0.001144
0.001144
0.00082
0.001793
0.002118
0.002442
0.002118
0.001793
0.001469
0.001144
0.001144
0.00082
-0.000478
0.000495
0.00082
0.000171
0.001144
0.00082
0.001144
0.001469
0.001793
0.001144
0.001469
0.001144
0.001144
0.001469
0.00082
0.001144
0.000171
0.000495
0.00082
0.000171
0.00082
0.000495
0.00082
0.001469
0.001469
0.001469
0.001469
0.001793
0.001144
0.001144
0.001144
0.001144
0.001144
0.00082
0.000171
0.000495
0.000495
0.00082
0.000495
0.00082
0.001469
0.001793
0.001469
0.001469
0.001469
0.001469
0.001144
0.001144
0.00082
0.000495
0.000495
0.000495
0.00082
0.00082
0.001469
0.062786
0.154276
0.177635
0.152329
0.094905
0.040725
0.016717
0.007309
0.004064
0.002442
0.001144
0.00082
0.00082
-0.000153
0.000495
0.00082
0.001144
0.005362
0.086145
0.144868
0.180231
0.172769
0.123779
0.066355
0.028397
0.012175
0.005362
0.002442
0.001469
0.000495
0.001144
0.021908
0.130268
0.215594
0.265232
0.273018
0.280155
0.302217
0.301244
0.306434
0.285022
0.226624
0.163685
0.118913
0.133512
0.201967
0.330118
0.472868
0.599072
0.705485
0.795028
0.857644
0.885869
0.881327
0.835582
0.742146
0.637679
0.535808
0.461188
0.406035
0.389813
0.412848
0.458593
0.558842
0.686344
0.822605
0.938427
1.015642
1.038352
1.01694
0.974115
0.877758
0.744417
0.653901
0.606858
0.59745
0.639626
0.723653
0.806708
0.879381
0.967302
1.060089
1.149632
1.225549
1.285893
1.314768
1.317363
1.290436
1.22198
1.128544
1.022779
0.908579
0.812223
0.757719
0.751879
0.797299
0.881976
0.992283
1.111025
1.222954
1.31639
1.389387
1.425399
1.431563
1.403662
1.318337
1.204786
1.075986
0.949133
0.846613
0.813197
0.836231
0.900144
1.016291
1.153525
1.284271
1.415342
1.506507
1.561012
1.62752
1.70441
1.686242
1.589886
1.467251
1.327745
1.19343
1.078582
1.014669
0.992607
1.012722
1.088315
1.215492
1.376086
1.518835
1.629467
1.674887
1.672616
1.636604
1.537977
1.402364
1.276485
1.201541
1.198946
1.253126
1.335856
1.401067
1.477957
1.591184
1.719334
1.828668
1.912047
1.97012
1.987964
1.962009
1.895825
1.785518
1.657043
1.531813
1.456869
1.471468
1.515591
1.563283
1.636604
1.747235
1.86176
1.978231
2.083347
2.174837
2.239723
2.271842
2.266002
2.202738
2.108977
2.008079
1.908803
1.828019
1.786816
1.802064
1.853649
1.94449
2.08432
2.255296
2.426596
2.596274
2.751677
2.854847
2.91292
2.938875
2.937253
2.889561
2.813319
2.722803
2.634233
2.57032
2.522304
2.504135
2.539174
2.629366
2.746162
2.864904
2.921031
2.942768
2.951528
2.954123
2.95607
2.956394
2.957368
2.956719
2.954772
2.895725
2.858091
2.834732
2.825648
2.862633
2.916813
2.94147
2.951528
2.954772
2.95607
2.957368
2.957692
2.957692
2.958016
2.957692
2.942119
2.864255
2.862309
2.90708
2.936928
2.948283
2.953474
2.95607
2.956394
2.957043
2.957368
2.957368
2.958016
2.958016
2.943741
2.801964
2.690684
2.646237
2.6245
2.623527
2.631637
2.649157
2.699444
2.770494
2.843167
2.90708
2.937253
2.948932
2.951852
2.920058
2.847385
2.731887
2.599194
2.483047
2.388638
2.304285
2.233883
2.175486
2.151153
2.18457
2.263407
2.397397
2.551827
2.692306
2.794502
2.84706
2.849656
2.78185
2.661161
2.523277
2.393828
2.286117
2.205658
2.161535
2.144989
2.168997
2.231612
2.306232
2.386367
2.470394
2.540796
2.57324
2.567724
2.528143
2.436654
2.32148
2.194627
2.073614
1.973689
1.894528
1.838076
1.816664
1.847485
1.909127
1.993155
2.123901
2.229666
2.276384
2.289037
2.265678
2.173863
2.039224
1.903936
1.751129
1.611299
1.53895
1.530515
1.558741
1.623627
1.734583
1.862084
1.999319
2.14434
2.249781
2.281899
2.2527
2.180677
2.07037
1.93865
1.828992
1.72777
1.629142
1.542843
1.496774
1.491908
1.526297
1.616489
1.757617
1.896799
2.009052
2.08724
2.111573
2.095675
2.047984
1.944166
1.811149
1.673589
1.543168
1.429617
1.342345
1.286867
1.258641
1.284271
1.349482
1.455247
1.578855
1.694029
1.783572
1.822504
1.830939
1.794278
1.707006
1.594104
1.473415
1.365704
1.275187
1.2249
1.209003
1.218412
1.268699
1.341047
1.412097
1.471468
1.513969
1.526946
1.513645
1.497423
1.478282
1.431239
1.358566
1.287516
1.240473
1.212247
1.202839
1.226847
1.285893
1.34786
1.400093
1.453949
1.500343
1.533435
1.540572
1.542843
1.554523
1.517538
1.431563
1.335856
1.261561
1.207381
1.170071
1.163258
1.172991
1.225549
1.304062
1.386143
1.457193
1.504885
1.521106
1.508778
1.48477
1.451354
1.401067
1.334234
1.294978
1.254424
1.208679
1.180453
1.159041
1.158392
1.206083
1.280703
1.355971
1.416639
1.461411
1.479255
1.470171
1.441621
1.385818
1.334234
1.269023
1.187915
1.101616
1.039001
1.048734
1.093181
1.161312
1.258317
1.38225
1.501965
1.594428
1.657368
1.679429
1.663208
1.61357
1.515916
1.393605
1.267725
1.157743
1.074364
1.032837
1.026348
1.052627
1.125624
1.222629
1.325799
1.428643
1.506183
1.545114
1.530191
1.474064
1.375112
1.253126
1.146063
1.063982
1.014344
1.001367
0.995852
1.002665
1.039001
1.116216
1.230416
1.349807
1.454274
1.561985
1.620058
1.61876
1.568149
1.475037
1.354349
1.206732
1.077608
1.001042
0.968275
0.99131
1.054574
1.165529
1.305035
1.437079
1.54771
1.634982
1.685269
1.691433
1.673265
1.607081
1.477957
1.330016
1.18824
1.081177
1.00818
1.000718
1.04549
1.106483
1.211274
1.327421
1.43935
1.54187
1.626871
1.67586
1.689487
1.674563
1.615516
1.512996
1.387765
1.267725
1.16488
1.091559
1.063982
1.066578
1.099994
1.181102
1.279729
1.38225
1.486392
1.578206
1.632387
1.64731
1.628493
1.56166
1.466602
1.355971
1.2395
1.132762
1.051329
1.013371
1.013371
1.063658
1.147686
1.240797
1.316714
1.380628
1.426048
1.425399
1.408529
1.406582
1.38225
1.330341
1.265454
1.183049
1.099021
1.048734
1.044841
1.070146
1.144766
1.249557
1.361162
1.476335
1.579829
1.646986
1.658017
1.622978
1.521755
1.352726
1.170396
1.021806
0.911499
0.842395
0.843693
0.888465
0.937778
1.025699
1.128544
1.231713
1.354349
1.501965
1.61357
1.654448
1.623951
1.527595
1.397498
1.26513
1.138277
1.031539
0.963084
0.940698
0.952378
1.002016
1.08507
1.172342
1.244691
1.306657
1.359864
1.382899
1.372517
1.355646
1.29368
1.203488
1.114269
1.034459
0.975412
0.947187
0.937778
0.947511
1.002016
1.082799
1.169747
1.257343
1.326772
1.369597
1.38517
1.36765
1.301791
1.200568
1.078906
0.944267
0.822281
0.722356
0.670447
0.650007
0.674015
0.761936
0.917664
1.081502
1.23658
1.414368
1.537328
1.584046
1.577233
1.506507
1.388089
1.25345
1.125949
1.024077
0.955946
0.930316
0.936156
0.983848
1.062036
1.151579
1.2395
1.31347
1.354673
1.332612
1.273565
1.190835
1.062036
0.925125
0.814494
0.735009
0.700619
0.723005
0.793082
0.86251
0.971844
1.081177
1.182724
1.282649
1.360513
1.394903
1.381276
1.341047
1.26221
1.145415
1.018237
0.895602
0.788864
0.715867
0.679206
0.664607
0.692832
0.788215
0.93129
1.080204
1.219709
1.314443
1.348509
1.343967
1.318661
1.240797
1.142495
1.043543
0.941996
0.853751
0.791135
0.75123
0.732089
0.757394
0.835907
0.943943
1.051329
1.160987
1.253126
1.298222
1.298546
1.242744
1.127571
0.986119
0.849533
0.743444
0.687317
0.69121
0.703863
0.723653
0.777509
0.856995
0.972492
1.099994
1.257343
1.392956
1.444216
1.424101
1.333585
1.197972
1.047761
0.900793
0.765181
0.658767
0.59745
0.574739
0.594205
0.665256
0.769723
0.895927
0.999096
1.057818
1.074688
1.066578
1.037379
0.968275
0.890411
0.801841
0.698672
0.610751
0.553327
0.521533
0.512773
0.540998
0.600694
0.680504
0.759016
0.832987
0.904037
0.950107
0.958218
0.927072
0.858293
0.762261
0.666878
0.574415
0.503364
0.472543
0.465406
0.475788
0.527372
0.607183
0.711001
0.817739
0.905011
0.963084
0.971195
0.943943
0.870297
0.770372
0.68018
0.612049
0.5543
0.506284
0.491036
0.501742
0.543918
0.636381
0.746039
0.855048
0.956595
1.033486
1.062684
1.0536
0.999745
0.889438
0.756097
0.618862
0.492009
0.385596
0.3259
0.310003
0.319412
0.377809
0.480979
0.60556
0.736631
0.850831
0.910202
0.897549
0.832987
0.736631
0.624377
0.517639
0.411875
0.332065
0.278858
0.25193
0.242197
0.260365
0.335633
0.431341
0.530617
0.634759
0.732413
0.790811
0.825849
0.844666
0.802815
0.68829
0.53451
0.393058
0.276262
0.198723
0.181528
0.247063
0.363534
0.48325
0.587392
0.681477
0.768749
0.838502
0.861861
0.868674
0.865754
0.799246
0.696077
0.580255
0.467353
0.377161
0.33758
0.343095
0.375538
0.439451
0.523804
0.613022
0.69413
0.766478
0.827472
0.859266
0.890736
0.907282
0.860564
0.773291
0.6685
0.567277
0.481952
0.436207
0.420959
0.43426
0.496227
0.573117
0.64287
0.712947
0.769398
0.817414
0.855373
0.878407
0.84564
0.777834
0.695428
0.601018
0.510177
0.439127
0.407333
0.397275
0.423879
0.502067
0.606209
0.709378
0.818712
0.930641
1.009478
1.044841
1.014344
0.906633
0.755772
0.59745
0.449509
0.338878
0.274316
0.264907
0.30027
0.37489
0.472868
0.58869
0.727222
0.842071
0.951729
1.047436
1.099021
1.090261
1.019211
0.923503
0.831689
0.735982
0.649034
0.59745
0.580579
0.598747
0.670447
0.771994
0.881976
0.9965
1.094803
1.146063
1.150605
1.1253
1.053276
0.941347
0.816441
0.692184
0.58285
0.510826
0.490063
0.503364
0.552354
0.646763
0.768101
0.908579
1.032512
1.130815
1.187591
1.211923
1.194404
1.113296
1.000069
0.884572
0.772967
0.685371
0.642221
0.633137
0.643519
0.700943
0.798273
0.921232
1.046138
1.136979
1.177209
1.165854
1.120758
1.040948
0.963408
0.914744
0.854075
0.795677
0.748635
0.726249
0.735009
0.788864
0.896575
1.01402
1.124651
1.229767
1.326447
1.391983
1.421506
1.415342
1.354024
1.241122
1.114594
0.995527
0.882625
0.798273
0.769074
0.780753
0.829418
0.920259
1.045165
1.160987
1.231065
1.244042
1.213545
1.17364
1.134059
1.071444
1.049707
1.075337
1.078582
1.046463
0.9965
0.95108
0.92837
0.960813
1.041921
1.163258
1.298871
1.411124
1.470171
1.48185
1.476659
1.429941
1.345264
1.244366
1.143144
1.044841
0.950107
0.882301
0.832662
0.825525
0.897873
1.023104
1.171045
1.337478
1.5104
1.6246
1.662883
1.646662
1.561985
1.43059
1.278107
1.131788
1.001691
0.88814
0.811899
0.786593
0.840449
0.964382
1.124651
1.310226
1.486717
1.613245
1.660288
1.639524
1.572367
1.466278
1.352726
1.241771
1.146063
1.101292
1.101292
1.106158
1.155472
1.242095
1.333909
1.416964
1.470495
1.498396
1.500018
1.478282
1.45914
1.447785
1.433834
1.411773
1.374463
1.316066
1.273565
1.258966
1.249233
1.257019
1.31931
1.405284
1.496774
1.581451
1.650555
1.689487
1.696624
1.667101
1.584046
1.466602
1.340074
1.220683
1.124002
1.060089
1.045165
1.067875
1.1253
1.220034
1.331963
1.439999
1.537977
1.615516
1.655097
1.664181
1.634333
1.551603
1.444541
1.332936
1.226198
1.139899
1.088315
1.0682
1.070146
1.120433
1.201217
1.292707
1.377059
1.460438
1.521755
1.535706
1.51624
1.468224
1.372517
1.269672
1.174938
1.08507
0.997798
0.966004
1.029268
1.143144
1.279729
1.419559
1.555172
1.662234
1.738151
1.769946
1.778381
1.762159
1.678131
1.538626
1.372841
1.208679
1.07112
0.984172
0.947836
0.960164
1.034135
1.156445
1.275187
1.389712
1.517538
1.624925
1.679429
1.700517
1.688838
1.624276
1.520133
1.408204
1.304062
1.219061
1.161636
1.131464
1.126598
1.173316
1.252801
1.351429
1.4533
1.542195
1.615516
1.643093
1.621031
1.550954
1.441945
1.311848
1.169423
1.033161
0.926423
0.883274
0.893656
0.948809
1.072417
1.19927
1.28492
1.348833
1.394578
1.403987
1.395551
1.373166
1.325799
1.260588
1.185969
1.115242
1.047761
0.998447
0.979306
0.973141
0.998123
1.063658
1.149632
1.228145
1.277458
1.289462
1.256046
1.21095
1.159041
1.096425
1.070471
1.058142
1.040299
0.992932
0.966004
0.974439
1.001691
1.067227
1.157743
1.260912
1.351753
1.419559
1.469846
1.488988
1.478606
1.423777
1.336505
1.226198
1.096425
0.980928
0.911499
0.873865
0.858293
0.894304
1.003638
1.135033
1.271943
1.414368
1.526946
1.588913
1.605783
1.585668
1.501965
1.377383
1.255397
1.144766
1.0536
0.995527
0.978657
0.998123
1.05944
1.162609
1.278432
1.381601
1.475362
1.547385
1.578531
1.578855
1.546412
1.452003
1.32515
1.195701
1.08799
0.99942
0.954649
0.950756
1.010127
1.133411
1.275836
1.416315
1.533435
1.632062
1.69338
1.702139
1.679754
1.620058
1.525973
1.430266
1.353051
1.278756
1.222305
1.190835
1.162285
1.15093
1.196675
1.272916
1.360513
1.468224
1.597672
1.68754
1.703762
1.66191
1.57334
1.45914
1.329043
1.196026
1.076959
0.990985
0.962435
0.970546
1.019211
1.134059
1.294004
1.431888
1.525649
1.586317
1.603837
1.589562
1.543817
1.446163
1.336505
1.22782
1.1253
1.040299
1.00526
1.023104
1.097074
1.206408
1.325474
1.439674
1.552576
1.661585
1.731663
1.754697
1.755346
1.708304
1.611947
1.490285
1.360837
1.258966
1.193755
1.193755
1.23074
1.306333
1.440323
1.566851
1.676834
1.767999
1.825748
1.839374
1.820882
1.775461
1.682025
1.56458
1.446487
1.329367
1.223603
1.159365
1.135357
1.118811
1.135682
1.202839
1.311848
1.415017
1.527271
1.654124
1.728418
1.74756
1.715117
1.634658
1.533759
1.421506
1.314119
1.232362
1.196026
1.192133
1.205759
1.266103
1.351104
1.449083
1.564905
1.664181
1.714143
1.719334
1.682674
1.59313
1.461411
1.315741
1.17364
1.08507
1.086692
1.14217
1.178831
1.261561
1.41891
1.581775
1.723876
1.836454
1.904585
1.916589
1.890959
1.841645
1.742693
1.606108
1.453949
1.316066
1.201541
1.112323
1.063982
1.059765
1.110376
1.195377
1.298546
1.440647
1.586642
1.692731
1.73588
1.740098
1.695002
1.592157
1.463682
1.337478
1.222629
1.129193
1.077933
1.060738
1.075337
1.139575
1.231389
1.326123
1.411449
1.471468
1.485743
1.428319
1.328718
1.205434
1.075986
0.969897
0.924477
0.947511
0.99942
1.061387
1.105185
1.147361
1.21095
1.286542
1.357268
1.420208
1.463033
1.45914
1.425075
1.386143
1.31347
1.23658
1.174613
1.111674
1.054898
1.03381
1.035108
1.051654
1.105185
1.183373
1.274863
1.366353
1.438701
1.474064
1.442918
1.363757
1.2395
1.062036
0.876461
0.748635
0.714245
0.709703
0.775887
0.894304
1.012398
1.124975
1.219709
1.316714
1.414693
1.496774
1.545439
1.549008
1.512996
1.434159
1.331638
1.20511
1.070471
0.947836
0.853102
0.808006
0.803139
0.85959
0.969573
1.072417
1.1678
1.257992
1.336829
1.391658
1.42475
1.411449
1.342345
1.244691
1.131788
1.016615
0.918637
0.860888
0.841098
0.846289
0.898198
0.986767
1.084746
1.179804
1.261237
1.323852
1.343967
1.321257
1.243717
1.109078
0.953351
0.802815
0.682451
0.612698
0.610751
0.669473
0.777834
0.893007
1.003314
1.111998
1.240473
1.363757
1.444216
1.451029
1.400093
1.294978
1.156121
1.0111
0.880029
0.796651
0.747661
0.738902
0.758043
0.803788
0.903064
1.022455
1.137953
1.236904
1.306333
1.327096
1.311848
1.26513
1.164232
1.038028
0.91669
0.820659
0.754799
0.723329
0.717489
0.733386
0.792757
0.886194
0.997798
1.083448
1.137628
1.178831
1.213545
1.239824
1.253126
1.246637
1.18824
1.089937
0.973466
0.864781
0.79146
0.757394
0.760963
0.81709
0.898198
0.98255
1.063333
1.133086
1.178507
1.203488
1.232362
1.213221
1.151903
1.060089
0.950756
0.856995
0.777834
0.735333
0.724951
0.758692
0.850182
0.985794
1.147686
1.279405
1.355971
1.379654
1.366028
1.325799
1.233984
1.116216
0.990985
0.872892
0.77394
0.709703
0.689588
0.700619
0.759016
0.85148
0.958218
1.063009
1.153525
1.214194
1.232687
1.22198
1.175262
1.089288
0.986119
0.870621
0.750906
0.659416
0.612698
0.609454
0.658118
0.758692
0.864132
0.959191
1.060738
1.17072
1.250855
1.298871
1.321905
1.27097
1.158716
1.0111
0.845964
0.700943
0.620809
0.602316
0.658118
0.768749
0.908579
1.045814
1.156121
1.246313
1.320608
1.358566
1.365379
1.330016
1.227171
1.074364
0.899495
0.735982
0.602316
0.536132
0.553327
0.629244
0.748959
0.880354
1.022131
1.149632
1.241446
1.303737
1.318661
1.296275
1.235931
1.12822
0.996825
0.852453
0.706459
0.580255
0.496551
0.469299
0.516666
0.643519
0.793406
0.968924
1.138926
1.260912
1.32223
1.314119
1.264805
1.167151
1.03965
0.89982
0.763559
0.647088
0.561762
0.518288
0.506933
0.531914
0.596801
0.689264
0.799246
0.930641
1.049058
1.100643
1.102265
1.060738
0.960489
0.829094
0.689913
0.559491
0.448535
0.378134
0.350233
0.359966
0.418688
0.504662
0.602316
0.711974
0.800219
0.85959
0.89982
0.900469
0.830391
0.710352
0.600694
0.508231
0.392409
0.269125
0.188666
0.134161
0.110802
0.133188
0.198723
0.272369
0.412199
0.598747
0.753501
0.858293
0.903064
0.867052
0.77978
0.667202
0.540025
0.425825
0.341797
0.298648
0.290862
0.32882
0.412848
0.504013
0.592583
0.669473
0.731115
0.75999
0.754474
0.711974
0.616915
0.504013
0.39176
0.288266
0.216567
0.197101
0.209105
0.238304
0.31195
0.409279
0.51472
0.621458
0.716192
0.783998
0.821632
0.827147
0.78562
0.695428
0.580904
0.460539
0.359317
0.286969
0.256148
0.257445
0.30319
0.409279
0.530941
0.641248
0.732738
0.777509
0.776536
0.760639
0.733062
0.697374
0.680828
0.687966
0.653252
0.613671
0.570522
0.543269
0.555273
0.631839
0.765505
0.912797
1.028295
1.11362
1.177533
1.200568
1.194728
1.168125
1.086044
0.990985
0.897873
0.798273
0.698997
0.641572
0.627946
0.644168
0.710676
0.809303
0.92253
1.038352
1.143144
1.217438
1.253775
1.267401
1.238526
1.151903
1.042894
0.933561
0.83396
0.758043
0.722031
0.715218
0.735009
0.792433
0.869323
0.95692
1.058791
1.163583
1.248908
1.29368
1.295951
1.235282
1.11362
0.953027
0.796002
0.682775
0.61724
0.618862
0.687642
0.813845
0.969248
1.121407
1.244691
1.357268
1.444541
1.474064
1.4679
1.446812
1.381925
1.276485
1.154174
1.034459
0.93129
0.871594
0.863808
0.889438
0.956595
1.045814
1.135357
1.208679
1.28492
1.337478
1.361811
1.385494
1.381925
1.314768
1.221656
1.1253
1.033161
0.957893
0.947187
0.989039
1.050032
1.139899
1.240797
1.334234
1.417288
1.479904
1.507805
1.505534
1.468549
1.377383
1.257019
1.138277
1.028619
0.938752
0.881652
0.861537
0.876136
0.934858
1.034459
1.151579
1.284596
1.401391
1.479255
1.512347
1.505858
1.463033
1.364082
1.235282
1.10778
0.995852
0.914744
0.887167
0.903389
0.939076
1.020508
1.124651
1.2249
1.314119
1.392632
1.440323
1.432861
1.387441
1.300168
1.17656
1.049058
0.932587
0.852453
0.830716
0.852128
0.907282
1.00526
1.153201
1.294653
1.413071
1.505858
1.567825
1.574638
1.524675
1.443892
1.316714
1.169423
1.030241
0.915717
0.85148
0.843369
0.865754
0.908579
0.992932
1.104212
1.233984
1.38517
1.517862
1.61357
1.649581
1.646662
1.601241
1.503587
1.376086
1.236904
1.108754
1.003314
0.940698
0.917664
0.937129
1.020184
1.129517
1.245988
1.363108
1.46206
1.525649
1.542195
1.518511
1.455896
1.363108
1.258641
1.160663
1.084421
1.020184
0.987741
0.98255
1.015642
1.098696
1.209328
1.319959
1.412097
1.486068
1.525
1.528893
1.501316
1.423128
1.306657
1.174613
1.051005
0.943943
0.876136
0.843369
0.845315
0.908255
1.037379
1.201541
1.379005
1.524026
1.621031
1.657692
1.645688
1.603188
1.504885
1.387116
1.287191
1.195053
1.110376
1.054898
1.028295
1.03089
1.076959
1.13633
1.193755
1.256695
1.31055
1.365704
1.427021
1.486392
1.52208
1.507156
1.454922
1.354673
1.228145
1.121407
1.056845
1.03381
1.052627
1.120433
1.211599
1.307955
1.40204
1.488988
1.543817
1.55063
1.520133
1.418262
1.283298
1.143144
1.017913
0.929343
0.870297
0.854399
0.879381
0.947836
1.048085
1.15677
1.261237
1.356295
1.428643
1.458167
1.45622
1.417288
1.325799
1.210301
1.090586
0.979306
0.887491
0.835907
0.817739
0.830067
0.898198
1.003962
1.134059
1.272267
1.374788
1.42475
1.43351
1.426697
1.377059
1.282974
1.168125
1.067875
0.97671
0.889438
0.838178
0.823578
0.845315
0.909228
1.006558
1.123029
1.245015
1.354024
1.418262
1.431563
1.419235
1.365055
1.26805
1.139575
0.99942
0.876461
0.804761
0.803139
0.852128
0.971195
1.134059
1.315741
1.477308
1.601566
1.671967
1.683322
1.661261
1.602539
1.479255
1.320608
1.158716
1.022131
0.920583
0.870945
0.875812
0.925774
1.041921
1.165854
1.274214
1.376086
1.465629
1.519484
1.535381
1.520133
1.441945
1.322879
1.203812
1.097074
1.006882
0.943618
0.918312
0.920259
0.952378
1.030566
1.124975
1.220034
1.317363
1.39328
1.42475
1.425075
1.398796
1.313795
1.193755
1.066253
0.94232
0.836231
0.769398
0.747337
0.758043
0.822281
0.926423
1.04257
1.152552
1.235282
1.280378
1.280054
1.255397
1.214843
1.133411
1.036406
0.978008
0.935183
0.867377
0.814819
0.817414
0.858941
0.937129
1.043219
1.162609
1.269672
1.338127
1.35662
1.335532
1.293031
1.214519
1.100319
0.989039
0.908904
0.852128
0.810926
0.787566
0.810277
0.873865
0.985794
1.111349
1.209328
1.278432
1.315417
1.315092
1.294329
1.257668
1.18824
1.111025
1.032188
0.943294
0.857319
0.796326
0.77394
0.764207
0.800219
0.88814
0.997798
1.127246
1.26221
1.359539
1.399445
1.39328
1.342669
1.247286
1.133086
1.020184
0.915068
0.821632
0.763234
0.7256
0.7256
0.781727
0.867701
0.97087
1.080853
1.176236
1.247286
1.300817
1.323203
1.291084
1.211923
1.107132
0.995527
0.899171
0.828769
0.804437
0.810277
0.84564
0.919286
1.009478
1.097723
1.177533
1.237229
1.260263
1.250855
1.225874
1.180453
1.115891
1.017588
0.904686
0.815792
0.761612
0.738902
0.739226
0.783024
0.840124
0.895602
0.95692
1.025375
1.095452
1.152876
1.22198
1.238526
1.182075
1.091234
0.972168
0.840449
0.739875
0.704836
0.727871
0.815792
0.973141
1.112647
1.210301
1.29076
1.363433
1.406258
1.404311
1.379005
1.315417
1.201866
1.048734
0.892033
0.75707
0.661038
0.627622
0.653576
0.752528
0.912473
1.075013
1.20511
1.303088
1.371868
1.403013
1.403987
1.371219
1.282
1.16488
1.043867
0.937129
0.85148
0.798922
0.778807
0.786593
0.845315
0.934858
1.035108
1.136006
1.222305
1.279729
1.299844
1.293031
1.258317
1.182724
1.093505
0.997474
0.901442
0.811899
0.767127
0.761612
0.78562
0.862186
0.965355
1.075986
1.180129
1.261237
1.294329
1.285569
1.247611
1.16488
1.071444
0.995527
0.93129
0.873541
0.835258
0.826498
0.81709
0.814819
0.844018
0.906957
1.004936
1.146712
1.280054
1.354997
1.381925
1.362135
1.278756
1.160338
1.042894
0.941671
0.844018
0.766478
0.730467
0.73144
0.806384
0.936481
1.081177
1.207705
1.301142
1.342345
1.333261
1.300493
1.244042
1.15677
1.057169
0.955622
0.849208
0.743119
0.677909
0.659092
0.683748
0.803788
0.991634
1.169098
1.303737
1.395227
1.439674
1.436105
1.395876
1.309253
1.198297
1.072417
0.942645
0.840124
0.77102
0.750581
0.767127
0.815792
0.898522
1.004611
1.121407
1.235282
1.330341
1.363433
1.349158
1.286218
1.161312
1.012722
0.871594
0.751555
0.674664
0.640275
0.63411
0.654225
0.720409
0.813521
0.915717
1.002665
1.059765
1.070795
1.037054
0.976061
0.863808
0.692184
0.509529
0.351855
0.216567
0.117615
0.075439
0.081928
0.096203
0.147787
0.227273
0.304163
0.379107
0.429718
0.432963
0.398897
0.338229
0.225327
0.102367
0.041049
0.01769
0.008282
0.004713
0.003091
0.002118
0.001793
0.001469
0.001144
0.000171
0.001793
0.002442
0.020935
0.100745
0.118589
0.073493
0.031641
0.013473
0.006335
0.003415
0.001793
0.001144
0.001144
0.001469
0.000171
0.001144
0.001793
0.107233
0.250957
0.330118
0.346988
0.320061
0.255823
0.173418
0.097825
0.044943
0.019313
0.008606
0.004389
0.002766
0.005686
0.121508
0.259392
0.382027
0.494929
0.567926
0.600045
0.598747
0.545216
0.461188
0.365805
0.274965
0.207807
0.172769
0.179582
0.215594
0.290862
0.395978
0.504013
0.604587
0.695103
0.764856
0.795353
0.79957
0.771669
0.687966
0.582526
0.472868
0.368401
0.291186
0.263934
0.278533
0.323954
0.408955
0.520235
0.633786
0.738577
0.82293
0.886843
0.91669
0.910202
0.860888
0.788215
0.707756
0.623404
0.538403
0.464757
0.433287
0.438478
0.478708
0.567277
0.676935
0.785295
0.879056
0.947836
0.980928
0.983848
0.969897
0.913446
0.839151
0.763883
0.698997
0.643519
0.610102
0.60848
0.628271
0.692832
0.803464
0.93129
1.045165
1.129842
1.190835
1.21095
1.196999
1.150281
1.079879
0.995527
0.888789
0.764207
0.658118
0.601343
0.573117
0.565331
0.629244
0.747661
0.873865
0.992607
1.102265
1.199595
1.26221
1.277458
1.228794
1.119784
0.989687
0.868026
0.776211
0.715867
0.696726
0.711001
0.763559
0.855697
0.971844
1.088315
1.215492
1.322879
1.385494
1.404635
1.386143
1.313146
1.216465
1.107456
0.9965
0.912473
0.863159
0.853426
0.864781
0.928045
1.045165
1.187915
1.318337
1.408204
1.471793
1.498721
1.503263
1.474388
1.398147
1.300168
1.203812
1.109727
1.031863
0.995203
0.994554
1.024726
1.107456
1.217763
1.318012
1.400093
1.469846
1.51624
1.527271
1.527271
1.501641
1.441296
1.366028
1.283622
1.20803
1.137628
1.087666
1.071769
1.089937
1.158067
1.255721
1.368624
1.480553
1.576584
1.635306
1.654124
1.623303
1.531813
1.406907
1.274214
1.169747
1.133086
1.141197
1.174289
1.227171
1.320932
1.442918
1.563931
1.676834
1.770595
1.831588
1.846836
1.83905
1.79298
1.688513
1.565229
1.433834
1.321257
1.233011
1.183373
1.193106
1.256695
1.371543
1.495152
1.615516
1.715766
1.79298
1.845863
1.865004
1.862084
1.812771
1.718037
1.597348
1.462709
1.337154
1.240797
1.196999
1.19927
1.24534
1.340398
1.461411
1.588264
1.712521
1.81342
1.868249
1.882848
1.857542
1.777083
1.670345
1.549008
1.415017
1.302115
1.2395
1.235282
1.271294
1.364082
1.482824
1.605459
1.718685
1.820233
1.900043
1.920807
1.892257
1.824775
1.70733
1.572042
1.441621
1.333585
1.257668
1.225874
1.252801
1.330665
1.458167
1.581126
1.692406
1.792332
1.866302
1.896474
1.889986
1.858191
1.79006
1.704086
1.621031
1.545763
1.487366
1.434483
1.410475
1.413071
1.445514
1.518511
1.619734
1.735556
1.848458
1.933784
1.963632
1.940272
1.885768
1.789087
1.681051
1.579504
1.474713
1.375437
1.305359
1.279405
1.288165
1.349807
1.474064
1.618436
1.756644
1.873439
1.954547
1.975311
1.954223
1.904585
1.81342
1.701815
1.587615
1.483797
1.405609
1.36765
1.354349
1.361162
1.419559
1.511049
1.610974
1.71025
1.826397
1.905558
1.922429
1.894528
1.841321
1.759888
1.654124
1.54479
1.465629
1.415342
1.395876
1.414368
1.48185
1.605134
1.736205
1.848458
1.949357
2.030789
2.058366
2.051228
2.023651
1.929566
1.794927
1.650555
1.517862
1.414693
1.368624
1.381925
1.426372
1.515267
1.623627
1.721605
1.799793
1.852351
1.882199
1.888039
1.866302
1.794603
1.669696
1.528244
1.400093
1.292382
1.218087
1.192782
1.20511
1.236255
1.286867
1.342345
1.408529
1.492232
1.595726
1.685918
1.762159
1.802064
1.772541
1.680403
1.562309
1.437079
1.319959
1.22782
1.184346
1.179804
1.216141
1.298222
1.397498
1.488988
1.558092
1.606756
1.621356
1.611947
1.579829
1.501965
1.3962
1.280054
1.168125
1.073391
1.008504
0.993256
1.035757
1.134059
1.252477
1.36765
1.483797
1.590535
1.671318
1.695326
1.672292
1.597024
1.46206
1.308279
1.178507
1.074364
0.985794
0.952378
0.980603
1.034459
1.134384
1.264157
1.398796
1.526946
1.62752
1.688189
1.691433
1.649257
1.546088
1.403987
1.277134
1.153525
1.043219
0.976061
0.991634
1.058142
1.15969
1.2966
1.422155
1.530839
1.624276
1.68754
1.701166
1.670021
1.606108
1.511049
1.400418
1.281676
1.162934
1.079555
1.042894
1.038028
1.052952
1.103887
1.180453
1.265779
1.367326
1.464331
1.544141
1.587939
1.607081
1.582424
1.494503
1.371868
1.244366
1.129193
1.035108
0.988065
0.97963
1.002016
1.072093
1.171694
1.275512
1.368299
1.439025
1.483797
1.488663
1.461087
1.395876
1.295626
1.172342
1.04841
0.945565
0.867052
0.824552
0.817414
0.854075
0.949458
1.073066
1.230091
1.390685
1.508129
1.581451
1.59897
1.578531
1.495476
1.375112
1.247286
1.120758
1.008829
0.934534
0.902091
0.912797
0.977683
1.072742
1.172018
1.266103
1.346562
1.405933
1.434483
1.415666
1.345913
1.221656
1.084746
0.955622
0.858293
0.794055
0.770696
0.779456
0.821307
0.903064
1.014669
1.134059
1.239824
1.306982
1.339425
1.352726
1.335856
1.257343
1.143792
1.024077
0.911175
0.820334
0.769723
0.780753
0.818712
0.868674
0.950431
1.054898
1.155472
1.235282
1.285893
1.289462
1.25053
1.17072
1.041596
0.916366
0.810926
0.728195
0.692508
0.685371
0.705161
0.744742
0.835582
0.946862
1.050032
1.135682
1.201866
1.235931
1.221656
1.187915
1.11362
0.987416
0.837529
0.684397
0.571171
0.504013
0.468001
0.471895
0.54846
0.720734
0.900144
1.049058
1.168774
1.260912
1.312497
1.318337
1.286867
1.207705
1.095452
0.971844
0.863159
0.778807
0.717489
0.687966
0.676935
0.693806
0.759341
0.853102
0.954649
1.056845
1.135357
1.161312
1.152228
1.114918
1.027646
0.918312
0.801841
0.686019
0.586419
0.525426
0.512124
0.534834
0.60264
0.70581
0.813197
0.916366
1.00818
1.072742
1.092857
1.071444
1.002665
0.884572
0.74831
0.617564
0.502067
0.463784
0.5118
0.565331
0.62308
0.710676
0.791135
0.833311
0.872243
0.903389
0.912148
0.905984
0.948485
0.998447
0.994878
0.946214
0.849533
0.74247
0.657794
0.615942
0.608805
0.642546
0.715867
0.805735
0.896575
0.981252
1.060089
1.107132
1.122704
1.116216
1.058142
0.961137
0.856995
0.755448
0.667527
0.622431
0.610751
0.627946
0.681477
0.757394
0.857968
0.96276
1.046463
1.103563
1.11946
1.104212
1.0536
0.960489
0.856022
0.755123
0.663958
0.58869
0.564358
0.583175
0.616915
0.695103
0.79957
0.897873
0.987416
1.060738
1.101616
1.110052
1.089612
1.008829
0.885869
0.75123
0.621782
0.513746
0.444967
0.443669
0.476112
0.530292
0.628595
0.754799
0.892033
1.057169
1.190186
1.25053
1.266752
1.235931
1.131788
0.998447
0.868674
0.75999
0.661038
0.586419
0.547812
0.544892
0.58869
0.65455
0.742146
0.845315
0.952702
1.044841
1.11654
1.165854
1.165529
1.093505
0.989687
0.875163
0.756745
0.67142
0.644168
0.651305
0.681802
0.754799
0.849208
0.949133
1.054574
1.142819
1.188564
1.188888
1.155796
1.07404
0.964382
0.834609
0.711325
0.615618
0.545216
0.503689
0.490063
0.538727
0.649034
0.770696
0.897224
1.024402
1.13114
1.186293
1.186617
1.134384
1.02797
0.908904
0.784647
0.660714
0.561438
0.50888
0.481952
0.469948
0.51991
0.61432
0.724951
0.849533
1.00526
1.142495
1.216465
1.232038
1.176884
1.059765
0.923179
0.789189
0.667851
0.572468
0.529643
0.528995
0.550407
0.613671
0.693481
0.772643
0.850182
0.924152
0.987416
1.023753
1.041921
1.012722
0.948809
0.878407
0.807032
0.726898
0.65163
0.615942
0.613347
0.65163
0.732413
0.834609
0.944916
1.046463
1.12238
1.154823
1.151254
1.114918
1.027646
0.910526
0.795677
0.697374
0.620484
0.578308
0.58577
0.615942
0.674015
0.747013
0.817739
0.891385
0.954324
0.997798
1.004936
0.972492
0.904686
0.80541
0.702241
0.603614
0.529968
0.481952
0.48325
0.52283
0.586419
0.709378
0.855048
0.98839
1.092532
1.171694
1.219385
1.21679
1.183049
1.098696
0.979954
0.852453
0.719111
0.615618
0.558842
0.538403
0.541323
0.581228
0.669798
0.77686
0.884247
0.980928
1.05944
1.099345
1.105185
1.076959
0.994229
0.884572
0.762585
0.638004
0.539376
0.488765
0.48033
0.511475
0.605885
0.732738
0.881003
1.021806
1.125949
1.182724
1.183049
1.140548
1.051654
0.930965
0.795677
0.650332
0.501742
0.372943
0.287942
0.24609
0.256796
0.366454
0.567926
0.796651
1.007531
1.174289
1.261886
1.25637
1.195053
1.086368
0.957893
0.823578
0.703214
0.611725
0.544243
0.508231
0.502067
0.544892
0.626324
0.727222
0.840773
0.9394
0.987092
0.990661
0.974439
0.934534
0.849208
0.74247
0.644168
0.562735
0.49428
0.462162
0.479032
0.522181
0.59453
0.687317
0.787242
0.867701
0.901118
0.8969
0.86835
0.827147
0.774914
0.736306
0.735333
0.72852
0.678882
0.618538
0.586419
0.568251
0.569873
0.625351
0.70873
0.793406
0.875487
0.943618
0.971519
0.951729
0.897873
0.807681
0.696401
0.570197
0.474166
0.425501
0.407333
0.407657
0.421608
0.470272
0.549758
0.644817
0.745715
0.84272
0.919935
0.947511
0.936156
0.891385
0.798597
0.677909
0.555598
0.42615
0.31195
0.244792
0.218513
0.226624
0.295079
0.399546
0.507906
0.612698
0.706459
0.767452
0.785295
0.775563
0.738902
0.654874
0.533537
0.415119
0.33758
0.297026
0.283075
0.295079
0.368401
0.480654
0.590312
0.684397
0.769723
0.8398
0.879056
0.895927
0.881976
0.813197
0.712947
0.592259
0.465406
0.349908
0.261338
0.210078
0.180555
0.201643
0.259716
0.338229
0.443345
0.571495
0.698348
0.789837
0.84272
0.844666
0.775563
0.668176
0.557869
0.459242
0.372943
0.316167
0.290537
0.30319
0.360939
0.442371
0.540998
0.643843
0.73728
0.789837
0.803464
0.795353
0.749932
0.671096
0.565655
0.435234
0.279507
0.138703
0.063435
0.030343
0.021908
0.148761
0.368725
0.574739
0.715218
0.798922
0.837853
0.841747
0.812223
0.732089
0.62016
0.492009
0.355099
0.225002
0.125402
0.068951
0.051756
0.088092
0.181853
0.310328
0.449184
0.577335
0.692832
0.775563
0.804437
0.777834
0.701592
0.605885
0.496551
0.379107
0.266529
0.187368
0.146165
0.139352
0.191586
0.269449
0.352179
0.439776
0.514395
0.564033
0.611725
0.675638
0.687642
0.656496
0.622431
0.55138
0.45178
0.357695
0.305786
0.293457
0.322332
0.408306
0.524452
0.646114
0.756097
0.841422
0.88522
0.88814
0.854399
0.764856
0.645141
0.526075
0.419012
0.349908
0.320385
0.335633
0.375214
0.455349
0.566953
0.690237
0.801841
0.901118
0.982225
1.028619
1.051978
1.049383
0.990661
0.899495
0.807357
0.710027
0.621782
0.573442
0.550731
0.549758
0.617564
0.737604
0.863483
0.983848
1.113945
1.230416
1.292707
1.307306
1.261237
1.161961
1.043543
0.932263
0.849208
0.799246
0.787566
0.803139
0.852453
0.949782
1.069498
1.203163
1.331638
1.426048
1.472766
1.487366
1.470171
1.395876
1.291084
1.17948
1.069498
0.969573
0.903713
0.903713
0.965679
1.070471
1.201866
1.343642
1.488663
1.632387
1.744316
1.817962
1.857218
1.834508
1.749506
1.634009
1.514942
1.403338
1.30763
1.258966
1.243069
1.254424
1.317039
1.41372
1.538301
1.68462
1.833859
1.973689
2.064854
2.10184
2.074263
1.993155
1.890959
1.79006
1.696949
1.629467
1.605134
1.610325
1.651528
1.744316
1.861111
1.983746
2.112221
2.225773
2.303312
2.339973
2.344515
2.290983
2.206631
2.115141
2.022678
1.943841
1.888363
1.863058
1.870195
1.922104
2.008403
2.111897
2.214418
2.306556
2.379553
2.410699
2.406481
2.380851
2.309152
2.198845
2.083996
1.972716
1.882848
1.859489
1.890959
1.936379
2.027869
2.140123
2.2527
2.361385
2.449306
2.4957
2.508029
2.503811
2.440871
2.320182
2.189436
2.05869
1.934757
1.829966
1.752751
1.707979
1.722254
1.7959
1.895176
2.048633
2.229341
2.380851
2.472017
2.499269
2.482398
2.396748
2.271518
2.134932
2.004186
1.88739
1.80174
1.749506
1.711548
1.711872
1.754049
1.828668
1.926646
2.042144
2.151153
2.213769
2.233559
2.215715
2.131363
2.00743
1.876684
1.761835
1.677158
1.640822
1.6392
1.668723
1.744964
1.838725
1.930864
2.014567
2.080103
2.112546
2.120981
2.103462
2.065503
2.013594
1.924375
1.819259
1.712521
1.621356
1.571069
1.560038
1.594428
1.666452
1.756644
1.851054
1.945463
2.012621
2.034358
2.015541
1.958765
1.850729
1.718037
1.583397
1.469522
1.406258
1.390036
1.408853
1.47082
1.546737
1.622654
1.692731
1.772866
1.853
1.91594
1.952925
1.958441
1.933459
1.853974
1.726472
1.605134
1.503263
1.414693
1.347211
1.309901
1.307306
1.342993
1.412746
1.507805
1.63044
1.751778
1.857218
1.95033
1.98764
1.929891
1.825099
1.715117
1.599295
1.484121
1.388414
1.338127
1.326123
1.354997
1.43351
1.529542
1.631089
1.716414
1.760537
1.752426
1.712846
1.65023
1.54187
1.418262
1.324501
1.252801
1.19927
1.182724
1.195053
1.223927
1.283298
1.368299
1.455571
1.542519
1.621031
1.671967
1.685593
1.680403
1.641795
1.560363
1.458167
1.350131
1.240149
1.126273
1.043219
1.004936
1.010775
1.069173
1.154174
1.254424
1.360513
1.458167
1.532462
1.576909
1.59605
1.567176
1.487366
1.389063
1.285569
1.189213
1.126598
1.112971
1.138277
1.186617
1.257992
1.340722
1.425399
1.501965
1.568474
1.587291
1.553225
1.467575
1.325474
1.207381
1.12822
1.08215
1.080528
1.100319
1.146712
1.200892
1.282325
1.37641
1.468224
1.558741
1.645039
1.711548
1.738151
1.723876
1.652177
1.516889
1.356295
1.20219
1.067551
0.962435
0.920583
0.919935
0.951404
1.051654
1.187915
1.320608
1.442918
1.541221
1.603188
1.648284
