0.789513
0.756745
0.677909
0.581552
0.545541
0.545865
0.65974
0.878732
1.084097
1.277134
1.420208
1.512022
1.558092
1.568149
1.546737
1.470171
1.340074
1.171694
1.006882
0.853751
0.737604
0.705161
0.774265
0.891709
1.037054
1.223278
1.378357
1.463682
1.514293
1.524675
1.472442
1.362784
1.223278
1.076959
0.940374
0.841098
0.778482
0.760963
0.777834
0.827147
0.923503
1.048085
1.174613
1.288165
1.373814
1.412746
1.420857
1.40204
1.330016
1.226198
1.116865
1.005909
0.903064
0.827147
0.790811
0.789513
0.832338
0.91961
1.026024
1.120109
1.164232
1.152228
1.087666
0.998123
0.896251
0.816116
0.823254
0.871594
0.881003
0.897873
0.977359
1.049383
1.064631
1.098372
1.160987
1.248259
1.342669
1.414693
1.444865
1.405609
1.289462
1.068524
0.783024
0.529643
0.379756
0.375214
0.566629
0.882949
1.080204
1.145739
1.21387
1.31055
1.40204
1.473415
1.510725
1.50748
1.466278
1.410475
1.317363
1.203812
1.099994
1.014669
0.941996
0.88814
0.875812
0.905335
0.992932
1.093505
1.191484
1.256695
1.291733
1.323852
1.330016
1.318661
1.286218
1.213221
1.117189
1.018562
0.927072
0.855697
0.820659
0.819361
0.846613
0.920259
1.002989
1.076635
1.148334
1.195053
1.215167
1.209976
1.183049
1.151903
1.113945
1.043867
0.935832
0.823903
0.737604
0.698348
0.706783
0.777834
0.881976
0.988065
1.102265
1.180778
1.235282
1.265779
1.288813
1.315741
1.310226
1.286867
1.199919
1.099021
0.990336
0.884896
0.778807
0.648061
0.585121
0.60848
0.667527
0.782376
0.997149
1.307306
1.532137
1.658341
1.711872
1.646013
1.511049
1.364406
1.212896
1.060413
0.923179
0.789513
0.648385
0.603614
0.664607
0.800544
1.002665
1.236904
1.425724
1.522404
1.542843
1.477633
1.362784
1.232687
1.092532
0.95692
0.832987
0.758692
0.735009
0.74831
0.819036
0.92545
1.055223
1.201217
1.343318
1.449407
1.500343
1.501316
1.443243
1.34494
1.220034
1.086368
0.95984
0.858941
0.806384
0.79146
0.821632
0.905011
1.011424
1.118811
1.215492
1.301142
1.367001
1.394903
1.385818
1.304062
1.18824
1.077608
0.972168
0.872243
0.78562
0.70289
0.6114
0.560789
0.544892
0.594854
0.763559
1.002989
1.227171
1.389063
1.475037
1.483797
1.381601
1.228145
1.075013
0.901118
0.721382
0.647412
0.619511
0.627946
0.72852
0.919935
1.127895
1.276809
1.387441
1.474388
1.507805
1.488988
1.415991
1.301466
1.138602
0.953675
0.773291
0.637679
0.59453
0.679531
0.858941
1.071769
1.221007
1.291733
1.338127
1.383872
1.414368
1.444216
1.443243
1.389712
1.304386
1.190186
1.065604
0.961786
0.903389
0.877758
0.881327
0.937129
1.01986
1.103238
1.194079
1.275836
1.324825
1.335856
1.324501
1.276161
1.19635
1.105185
1.018886
0.930641
0.857319
0.83396
0.84564
0.886194
0.958542
1.03089
1.103563
1.16488
1.1824
1.146388
1.090261
1.023753
0.949782
0.887491
0.891385
0.891709
0.841747
0.796975
0.791135
0.812223
0.886194
1.018562
1.173316
1.27908
1.369272
1.43643
1.4533
1.419235
1.298546
1.110052
0.860888
0.562411
0.337904
0.295079
0.408306
0.617889
0.887167
1.13633
1.294978
1.397822
1.492232
1.577558
1.625249
1.620383
1.587615
1.499045
1.360513
1.194079
0.98255
0.745715
0.556247
0.455673
0.467677
0.623404
0.908255
1.146388
1.309901
1.418586
1.479255
1.497099
1.485419
1.43935
1.346562
1.228469
1.104212
0.987416
0.8969
0.838502
0.82293
0.839151
0.893007
0.97379
1.069822
1.168449
1.259615
1.331638
1.367326
1.369272
1.336505
1.253775
1.152876
1.047761
0.941023
0.848884
0.792109
0.753177
0.733062
0.760963
0.81709
0.880029
0.947511
1.013371
1.065929
1.117513
1.201541
1.258641
1.236255
1.160338
1.067227
0.978008
0.901118
0.846937
0.779131
0.724302
0.713596
0.710352
0.721382
0.820659
0.980603
1.151579
1.315092
1.432537
1.500992
1.4679
1.379654
1.255721
1.120109
1.001367
0.913446
0.849857
0.827796
0.852777
0.894953
0.94232
1.03089
1.148334
1.254099
1.361811
1.432537
1.42767
1.36765
1.254099
1.110376
0.981577
0.902091
0.866728
0.867052
0.922206
1.013695
1.123353
1.214194
1.261561
1.269347
1.245015
1.21095
1.19343
1.168125
1.124975
1.043219
0.949458
0.86835
0.833311
0.834933
0.875812
0.966653
1.080528
1.192133
1.293355
1.37057
1.406582
1.400418
1.354997
1.23074
1.065604
0.907931
0.778807
0.682126
0.645141
0.648385
0.648385
0.601018
0.571171
0.577984
0.643194
0.820659
1.121731
1.415017
1.587615
1.646662
1.583722
1.429941
1.241122
1.066253
0.934858
0.841747
0.768101
0.735333
0.766478
0.814819
0.881976
0.982874
1.084421
1.172018
1.220358
1.265779
1.308279
1.292382
1.235607
1.15969
1.052952
0.951404
0.879381
0.838502
0.841422
0.907606
1.012398
1.160987
1.309253
1.428319
1.50748
1.52208
1.465304
1.343318
1.187915
1.014344
0.844991
0.703214
0.615618
0.616915
0.66558
0.778482
0.937778
1.104536
1.251179
1.367001
1.447136
1.480877
1.479579
1.439999
1.347211
1.230091
1.103238
0.982874
0.884247
0.826823
0.803139
0.811574
0.873216
0.969573
1.077608
1.183373
1.271618
1.326772
1.336505
1.300817
1.197648
1.022779
0.811574
0.612698
0.446913
0.348935
0.387218
0.520884
0.704188
0.902091
1.095777
1.281676
1.427995
1.480228
1.440972
1.349807
1.17948
0.907931
0.655847
0.514395
0.485845
0.542296
0.740199
0.990012
1.141197
1.221007
1.2966
1.365379
1.431563
1.494503
1.522729
1.483472
1.412097
1.312821
1.184995
1.073391
0.994554
0.955298
0.922854
0.896575
0.88522
0.904686
0.978657
1.082475
1.18532
1.27908
1.349807
1.389712
1.393605
1.375112
1.318986
1.218412
1.095452
0.969897
0.856022
0.770047
0.724627
0.714245
0.756421
0.849857
0.959191
1.064956
1.158392
1.23366
1.272916
1.283298
1.274863
1.227496
1.163258
1.09091
0.996825
0.903389
0.834609
0.784322
0.743768
0.742146
0.746688
0.778807
0.861861
0.992283
1.127571
1.25929
1.358566
1.337154
1.187266
1.00234
0.855373
0.754799
0.760963
0.838502
0.91669
0.977683
1.032188
1.100967
1.160987
1.221007
1.292058
1.344291
1.37349
1.372192
1.293355
1.143144
0.955298
0.774265
0.635084
0.546189
0.504987
0.585121
0.799895
1.01402
1.203812
1.352078
1.454598
1.506831
1.495152
1.42183
1.306982
1.154499
1.022131
0.906957
0.808655
0.787891
0.844666
0.895602
0.9394
1.017588
1.103238
1.176884
1.256695
1.32515
1.367001
1.371868
1.350131
1.280703
1.149632
1.004936
0.867052
0.735982
0.646763
0.655198
0.703863
0.74539
0.807357
0.861537
0.926748
1.030566
1.187266
1.360837
1.498396
1.57918
1.543492
1.418586
1.263183
1.109078
0.95984
0.808979
0.679855
0.563384
0.506284
0.554949
0.665256
0.802166
0.96795
1.163907
1.324176
1.407555
1.456545
1.445189
1.37057
1.269023
1.15093
1.029268
0.915068
0.805735
0.708405
0.673367
0.718463
0.832014
0.988065
1.209328
1.395227
1.47601
1.486717
1.457193
1.365379
1.246313
1.1253
1.004936
0.89982
0.835582
0.795353
0.780753
0.809303
0.864457
0.955622
1.091883
1.216465
1.291733
1.320608
1.318337
1.251179
1.124651
0.984172
0.858293
0.756745
0.683424
0.661687
0.691535
0.747986
0.838178
0.977359
1.154823
1.333909
1.474064
1.535381
1.530515
1.486392
1.386143
1.257019
1.115891
0.972492
0.834285
0.697374
0.584797
0.524452
0.557544
0.657794
0.811574
1.001691
1.171369
1.294329
1.386467
1.424101
1.390685
1.299195
1.188564
1.080204
0.978008
0.891709
0.835258
0.80833
0.816441
0.885869
0.994878
1.124327
1.275512
1.389063
1.422804
1.384845
1.301466
1.179804
1.026024
0.861861
0.718138
0.607183
0.523155
0.525101
0.612373
0.750906
0.943294
1.163907
1.361811
1.497423
1.594428
1.633035
1.614867
1.554199
1.436754
1.286542
1.123678
0.989039
0.887816
0.812872
0.782376
0.790162
0.861861
0.986119
1.101616
1.196999
1.266103
1.301466
1.288489
1.242744
1.160338
1.066253
0.990985
0.875812
0.759016
0.698672
0.709054
0.746364
0.796651
0.878083
0.983199
1.095777
1.213221
1.31931
1.398796
1.441621
1.435132
1.354024
1.200892
1.006882
0.790486
0.601992
0.478708
0.477734
0.589339
0.795677
1.023753
1.223927
1.366353
1.467575
1.531488
1.559389
1.555496
1.522404
1.425724
1.295951
1.156121
1.021806
0.898198
0.797624
0.716516
0.669798
0.699646
0.782051
0.8969
1.047436
1.229118
1.354024
1.394254
1.367001
1.283947
1.184022
1.10778
1.05944
0.99131
0.892033
0.809628
0.729493
0.663309
0.671744
0.714569
0.768749
0.855373
0.999745
1.148983
1.267725
1.40204
1.493205
1.476659
1.37933
1.239824
1.087017
0.950431
0.843693
0.775238
0.777834
0.851804
0.999745
1.200244
1.365704
1.477957
1.531488
1.532786
1.494828
1.408204
1.289787
1.144117
0.990661
0.843693
0.714245
0.635732
0.607183
0.641897
0.755123
0.959191
1.172342
1.332287
1.435132
1.47893
1.481526
1.436105
1.325474
1.174938
1.003638
0.837205
0.715867
0.653576
0.648061
0.706459
0.819036
0.953027
1.096425
1.230416
1.340398
1.423128
1.466278
1.452327
1.351753
1.174613
0.974439
0.776536
0.616267
0.542296
0.615293
0.777185
0.935507
1.072093
1.186293
1.272267
1.320608
1.346562
1.348833
1.329367
1.276161
1.184995
1.094154
0.970546
0.850831
0.799246
0.821307
0.862186
0.882625
0.924152
0.998123
1.118811
1.274863
1.37641
1.377059
1.315741
1.229118
1.148659
1.075337
1.043867
1.056196
1.048734
0.992283
0.93421
0.931614
0.973141
1.046463
1.138277
1.228469
1.315092
1.388738
1.432861
1.440647
1.417288
1.341696
1.223927
1.087341
0.958866
0.854399
0.788215
0.779456
0.809952
0.878083
0.987741
1.099994
1.191159
1.271618
1.334234
1.359215
1.351429
1.313146
1.227496
1.123353
1.024077
0.930965
0.850506
0.802166
0.795677
0.81709
0.884247
0.978981
1.087341
1.18532
1.267076
1.303088
1.22782
1.040623
0.824552
0.633461
0.499796
0.513422
0.764856
1.024402
1.129517
1.181751
1.242095
1.295951
1.348184
1.404635
1.455896
1.466278
1.417937
1.34202
1.239175
1.105509
0.975737
0.878407
0.832662
0.840124
0.873216
0.943294
1.010451
1.088315
1.176236
1.263508
1.343318
1.398796
1.42475
1.403338
1.340074
1.248259
1.12822
1.015317
0.920259
0.860888
0.812872
0.788215
0.786918
0.803139
0.869972
0.974764
1.106807
1.240473
1.325799
1.368624
1.372517
1.363433
1.32515
1.277134
1.23366
1.173965
1.090586
1.014993
0.959515
0.929668
0.937778
0.998771
1.084746
1.178507
1.274214
1.352402
1.396849
1.40788
1.386792
1.30763
1.190835
1.059765
0.928045
0.813521
0.73436
0.704188
0.710352
0.766154
0.87127
1.01402
1.166827
1.291409
1.381276
1.420208
1.411449
1.342345
1.201866
1.016291
0.836231
0.675962
0.566953
0.572793
0.616591
0.655198
0.77102
0.926748
1.095452
1.278756
1.420857
1.494503
1.525973
1.517213
1.463033
1.363433
1.245015
1.128869
0.997798
0.849533
0.719111
0.620809
0.553976
0.572468
0.725924
0.957893
1.175911
1.368299
1.540248
1.628493
1.615192
1.521755
1.39912
1.273241
1.14217
1.021482
0.941023
0.89398
0.863159
0.875812
0.93421
1.006558
1.075662
1.148983
1.240149
1.32807
1.395551
1.42767
1.401067
1.332287
1.226198
1.111025
1.014344
0.962111
0.946214
0.954324
1.00234
1.074364
1.162609
1.257343
1.340074
1.403013
1.42767
1.410151
1.343318
1.241771
1.124975
1.014344
0.915393
0.824876
0.770696
0.74539
0.739875
0.77686
0.857644
0.962435
1.087666
1.198297
1.286218
1.337803
1.331314
1.266428
1.179155
1.050681
0.889438
0.754799
0.671744
0.637355
0.675962
0.814819
1.040623
1.214194
1.317363
1.368948
1.399445
1.388738
1.338127
1.270321
1.170071
1.057818
0.953027
0.862835
0.842071
0.888465
0.953351
1.028944
1.110052
1.184022
1.265454
1.3537
1.437403
1.520458
1.551279
1.54771
1.480877
1.354024
1.192782
1.027321
0.879705
0.788864
0.767452
0.778158
0.837205
0.943943
1.052303
1.161636
1.272267
1.369597
1.435132
1.461411
1.449732
1.383223
1.284271
1.173316
1.057169
0.955946
0.894629
0.872892
0.871919
0.912797
0.993581
1.084746
1.175911
1.261237
1.343967
1.379654
1.379005
1.354024
1.277134
1.147686
0.97963
0.808979
0.659092
0.526723
0.420959
0.410901
0.517964
0.720409
1.015966
1.333261
1.511698
1.568798
1.551928
1.486717
1.374788
1.239175
1.098696
0.990336
0.917664
0.853102
0.803788
0.772318
0.775238
0.827796
0.917664
1.024726
1.163907
1.3391
1.457842
1.482824
1.440647
1.335856
1.22198
1.116865
1.023428
0.956595
0.922206
0.908579
0.912473
0.964382
1.076959
1.206732
1.324176
1.41891
1.491259
1.521755
1.512671
1.454922
1.344291
1.216141
1.09383
0.986443
0.905984
0.86543
0.857319
0.883598
0.957569
1.055223
1.158067
1.253126
1.327421
1.374139
1.387116
1.366028
1.29076
1.177209
1.05944
0.948485
0.851155
0.796975
0.790811
0.807357
0.847262
0.933236
1.039001
1.141197
1.219061
1.264805
1.269672
1.2395
1.202515
1.144117
1.059116
0.992932
0.898847
0.774914
0.654225
0.576362
0.567926
0.685371
0.927721
1.162285
1.35078
1.456869
1.490285
1.458491
1.378357
1.269023
1.143144
1.020184
0.927397
0.882949
0.867377
0.847911
0.818063
0.809952
0.850831
0.910202
1.014993
1.19635
1.397498
1.524351
1.569771
1.54187
1.449083
1.32807
1.202515
1.077608
0.966653
0.87419
0.823903
0.813845
0.848884
0.945565
1.063009
1.168125
1.266752
1.332612
1.353375
1.343642
1.301791
1.212247
1.106483
1.000394
0.912148
0.850506
0.816441
0.816441
0.83396
0.894304
0.987092
1.097074
1.208354
1.308928
1.384521
1.41372
1.400093
1.334883
1.222629
1.089288
0.946214
0.798273
0.67434
0.572793
0.467353
0.411875
0.470597
0.608156
0.787891
1.077933
1.375112
1.55355
1.593779
1.526946
1.3962
1.254424
1.161961
1.058467
0.934858
0.813197
0.725276
0.677584
0.701268
0.824876
0.989039
1.160987
1.347211
1.455247
1.483148
1.493205
1.486717
1.435457
1.366677
1.268699
1.157743
1.045165
0.958218
0.915393
0.899171
0.926099
0.996825
1.095452
1.200244
1.30244
1.383223
1.419884
1.422479
1.379005
1.280054
1.153525
1.014669
0.884247
0.783998
0.726573
0.709703
0.733386
0.810277
0.899171
1.00818
1.132113
1.255721
1.368624
1.450705
1.498072
1.460438
1.350131
1.208679
1.055547
0.914744
0.791784
0.687317
0.612698
0.59745
0.660389
0.786269
0.98547
1.20511
1.38225
1.463358
1.479255
1.471144
1.430266
1.348833
1.206408
1.002665
0.782051
0.620809
0.548136
0.562411
0.672718
0.911499
1.181102
1.398796
1.549981
1.637902
1.659314
1.625249
1.542519
1.418586
1.272592
1.117838
0.966653
0.845315
0.768425
0.719436
0.713921
0.80541
0.933561
1.06528
1.218412
1.369272
1.463682
1.483472
1.428968
1.306333
1.150605
0.981901
0.832662
0.756745
0.746364
0.779131
0.855373
0.97671
1.12238
1.255397
1.353051
1.43351
1.492881
1.508778
1.48477
1.422804
1.312497
1.173965
1.035757
0.928045
0.85667
0.84856
0.876461
0.898198
0.950431
1.038677
1.141846
1.246637
1.338451
1.402364
1.411449
1.367001
1.285245
1.16488
1.028944
0.896575
0.819361
0.786269
0.777509
0.790811
0.838502
0.917664
1.016615
1.120433
1.219385
1.285245
1.302115
1.273241
1.20511
1.087341
0.937129
0.836231
0.810277
0.811899
0.825201
0.868674
0.906633
0.957244
1.0682
1.190186
1.272592
1.329043
1.338127
1.31055
1.301142
1.320283
1.334883
1.308279
1.264805
1.187266
1.099345
1.03965
1.002989
0.98547
1.012398
1.0682
1.13925
1.225549
1.306657
1.352402
1.357593
1.310226
1.214519
1.084421
0.959191
0.857968
0.797299
0.770047
0.772643
0.807357
0.874514
0.972817
1.080528
1.174613
1.257668
1.324176
1.358891
1.374788
1.351429
1.272592
1.182075
1.088639
1.013371
0.957569
0.912797
0.889762
0.889114
0.918961
0.983523
1.062036
1.141521
1.222629
1.293031
1.329043
1.346887
1.330665
1.225225
1.070795
0.916041
0.788215
0.698023
0.717489
0.832014
0.936481
1.048085
1.152552
1.238202
1.308928
1.350455
1.371543
1.377383
1.373814
1.314443
1.190186
1.041921
0.914744
0.809628
0.7256
0.680828
0.673691
0.712947
0.834609
1.004287
1.222954
1.384845
1.477957
1.539599
1.551603
1.512347
1.403662
1.251504
1.09967
0.948485
0.816441
0.750581
0.755772
0.780753
0.819685
0.887816
0.977359
1.067551
1.17656
1.295626
1.404311
1.461735
1.468549
1.409178
1.313146
1.204786
1.083124
0.964706
0.884247
0.846613
0.847262
0.927072
1.044841
1.136006
1.198621
1.235282
1.248259
1.243069
1.192457
1.10778
1.0111
0.92837
0.860239
0.813197
0.811899
0.871594
0.954
1.020184
1.086692
1.153525
1.225225
1.304386
1.374788
1.427021
1.441296
1.411124
1.318012
1.152228
0.953351
0.777834
0.643843
0.583823
0.619511
0.714894
0.847911
0.9965
1.168449
1.349158
1.484446
1.579504
1.615192
1.599619
1.539599
1.419559
1.267076
1.090261
0.914095
0.751555
0.613022
0.526399
0.507258
0.58285
0.719436
0.93129
1.209652
1.450056
1.597997
1.649257
1.635955
1.562634
1.44227
1.309901
1.17948
1.055547
0.946862
0.873541
0.838502
0.840449
0.891709
0.966977
1.049707
1.118162
1.16488
1.167476
1.132437
1.082799
1.021482
0.979306
0.986767
0.991958
0.980279
0.977035
0.983523
0.999096
1.036406
1.105509
1.191484
1.273565
1.343642
1.360513
1.267076
1.090586
0.870621
0.646439
0.482925
0.534185
0.767776
1.020508
1.201866
1.252477
1.242744
1.259939
1.309901
1.37933
1.445189
1.488663
1.50748
1.497099
1.454274
1.37349
1.248908
1.081826
0.886194
0.710676
0.587068
0.546514
0.603938
0.808655
1.070795
1.278107
1.403987
1.483148
1.540572
1.562634
1.549332
1.506507
1.415017
1.29076
1.151579
1.015317
0.901118
0.820334
0.78562
0.791135
0.841422
0.923828
1.023428
1.141521
1.251179
1.334234
1.379005
1.387441
1.352402
1.263183
1.15093
1.03673
0.933885
0.855373
0.813845
0.805735
0.816116
0.870297
0.931939
0.985794
1.002665
0.952702
0.819685
0.673367
0.580904
0.566304
0.671744
0.906633
1.190186
1.313146
1.296275
1.244691
1.217114
1.216141
1.254099
1.304062
1.35662
1.400742
1.423128
1.409502
1.367975
1.309253
1.211274
1.103563
1.022131
0.972168
0.949458
0.954973
0.969248
0.980928
1.015642
1.06528
1.102265
1.121082
1.134384
1.143144
1.132113
1.116216
1.128544
1.121407
1.068849
1.014669
0.967302
0.960489
0.975412
1.00526
1.042894
1.107132
1.172991
1.243069
1.320932
1.389387
1.432212
1.434808
1.412097
1.354673
1.260912
1.150281
1.039325
0.941996
0.873216
0.841098
0.838502
0.877758
0.960164
1.053925
1.139899
1.20803
1.247611
1.248584
1.219385
1.184022
1.143792
1.050032
0.917015
0.797624
0.700943
0.633461
0.618862
0.679531
0.787242
0.909877
1.038677
1.166503
1.250855
1.305035
1.342345
1.358566
1.325799
1.291733
1.273565
1.193106
1.091883
0.983848
0.91085
0.877758
0.852453
0.859915
0.907931
0.968599
1.025699
1.109403
1.248908
1.380952
1.452327
1.448758
1.391334
1.30763
1.190186
1.078257
0.989363
0.936156
0.897224
0.867377
0.868026
0.878407
0.897873
0.961462
1.063658
1.17364
1.287191
1.406258
1.431239
1.367975
1.26805
1.154823
1.051654
0.971519
0.924477
0.909228
0.937129
1.006233
1.086692
1.163907
1.220358
1.262534
1.275836
1.267076
1.265779
1.242744
1.206408
1.149308
1.061387
0.964057
0.897873
0.86835
0.872243
0.934858
1.030241
1.136979
1.226847
1.296924
1.315741
1.262534
1.189862
1.089937
0.967626
0.875487
0.873865
0.927721
0.96795
0.972492
0.957244
0.95984
1.007531
1.077608
1.157094
1.244042
1.315417
1.355971
1.36765
1.349482
1.271943
1.167476
1.055547
0.936481
0.822605
0.738253
0.694455
0.683424
0.735657
0.851804
0.99131
1.11362
1.205759
1.295951
1.362135
1.399445
1.397498
1.341696
1.244366
1.133411
1.040623
0.964382
0.882625
0.770047
0.663634
0.608805
0.59453
0.656821
0.827796
1.098048
1.362135
1.532462
1.629467
1.636929
1.562958
1.437079
1.300493
1.169423
1.060738
0.995527
0.956271
0.940374
0.968275
1.014993
1.070471
1.132113
1.190511
1.2395
1.301466
1.36473
1.340398
1.25053
1.135357
1.009478
0.895602
0.82293
0.767776
0.723005
0.70289
0.692508
0.69705
0.780429
0.929019
1.093181
1.267076
1.485743
1.611947
1.585344
1.473091
1.344616
1.219061
1.089288
0.980928
0.909553
0.869972
0.886194
0.951404
1.0536
1.183373
1.317363
1.439025
1.504236
1.512996
1.455247
1.357593
1.238202
1.115567
1.007856
0.924152
0.878732
0.866079
0.886843
0.956271
1.052627
1.15677
1.250855
1.326772
1.359215
1.34786
1.300493
1.206408
1.09091
0.966004
0.866079
0.793406
0.744093
0.705161
0.685371
0.717165
0.795353
0.924801
1.060089
1.155148
1.219061
1.216141
1.187915
1.169098
1.146388
1.111025
1.051005
0.97087
0.909553
0.887491
0.917015
0.974764
1.058467
1.155148
1.254748
1.342345
1.397498
1.401391
1.342345
1.240473
1.095452
0.931939
0.802166
0.745066
0.773291
0.867701
0.978657
1.061711
1.121082
1.203163
1.292382
1.374139
1.439674
1.483148
1.494179
1.473739
1.406907
1.254099
1.052952
0.849208
0.679206
0.576686
0.613022
0.785295
0.969248
1.142495
1.268374
1.355646
1.430266
1.486717
1.517213
1.518511
1.494503
1.432861
1.322879
1.191808
1.061711
0.935507
0.820983
0.747986
0.723653
0.745066
0.833636
0.966653
1.117838
1.248584
1.358566
1.429292
1.449407
1.429941
1.357268
1.243069
1.095452
0.907282
0.685371
0.463459
0.298973
0.258743
0.419661
0.709054
1.030241
1.34786
1.583397
1.684296
1.688189
1.646986
1.572691
1.446163
1.296924
1.151254
1.024077
0.919935
0.851155
0.824876
0.8398
0.906633
0.997798
1.089937
1.191484
1.27908
1.32515
1.311199
1.29076
1.245015
1.153201
1.028295
0.940049
0.881976
0.823578
0.793406
0.819036
0.881003
1.000394
1.139899
1.263508
1.369921
1.446487
1.486717
1.492557
1.468549
1.379979
1.238202
1.070471
0.905984
0.766154
0.680504
0.682775
0.767776
0.883598
1.009802
1.129842
1.249233
1.352726
1.431888
1.473415
1.486068
1.465629
1.386467
1.271943
1.136655
0.989039
0.851804
0.759665
0.719436
0.696726
0.691859
0.718463
0.724951
0.715218
0.809628
1.004936
1.207057
1.405609
1.546737
1.592157
1.516564
1.378032
1.228145
1.097074
0.99942
0.939076
0.919286
0.953027
1.0111
1.083448
1.15969
1.220034
1.260912
1.264157
1.243393
1.225225
1.196026
1.142495
1.078582
1.012398
0.93421
0.874839
0.840124
0.846937
0.895927
0.97379
1.059116
1.142819
1.22198
1.28784
1.318986
1.324825
1.276485
1.186942
1.069822
0.941347
0.834285
0.771669
0.759341
0.804112
0.909877
1.043543
1.167151
1.277134
1.36765
1.428643
1.450705
1.426372
1.355971
1.249233
1.131464
1.008829
0.881327
0.752852
0.646114
0.579281
0.575713
0.647736
0.764856
0.931614
1.1107
1.244042
1.322879
1.348184
1.314768
1.219061
1.105834
0.989687
0.87711
0.820334
0.790162
0.767452
0.754799
0.771994
0.880354
1.042894
1.210301
1.343967
1.460438
1.521431
1.522404
1.482824
1.381276
1.234633
1.057818
0.854075
0.642221
0.47741
0.394355
0.383
0.480005
0.65974
0.878732
1.092857
1.291733
1.445189
1.549332
1.571393
1.521106
1.426048
1.326447
1.215492
1.09091
0.966977
0.855697
0.759341
0.707107
0.72852
0.80833
0.958866
1.161312
1.32515
1.406258
1.415991
1.379654
1.296924
1.184671
1.067227
0.956595
0.861861
0.792433
0.75999
0.756097
0.784322
0.849857
0.938752
1.031215
1.105509
1.153201
1.151903
1.118162
1.068524
0.992607
0.918961
0.832662
0.747337
0.641897
0.517315
0.428096
0.370023
0.373267
0.486818
0.690886
0.885545
1.052303
1.161961
1.190835
1.179155
1.137953
1.051978
0.929992
0.802815
0.681477
0.574739
0.507906
0.475463
0.471246
0.510177
0.561113
0.583823
0.565331
0.53451
0.464757
0.366454
0.334984
0.402142
0.461837
0.504338
0.567277
0.602316
0.597774
0.585121
0.574739
0.590637
0.654874
0.735009
0.816765
0.879705
0.900469
0.872243
0.823578
0.746688
0.64871
0.584148
0.556896
0.53451
0.479681
0.457944
0.468326
0.480654
0.520559
0.589663
0.672069
0.756421
0.840773
0.913446
0.948809
0.954649
0.921557
0.844666
0.744742
0.636706
0.540025
0.472219
0.444642
0.439127
0.458593
0.546189
0.654225
0.764207
0.869648
0.959191
1.013046
1.037379
1.034135
0.98255
0.899495
0.801517
0.698023
0.604263
0.528021
0.475139
0.443669
0.455673
0.50596
0.566953
0.619511
0.710027
0.784322
0.808979
0.836231
0.87711
0.931614
0.989687
0.99942
0.965031
0.897549
0.83396
0.789189
0.752852
0.737604
0.745066
0.77102
0.812872
0.869323
0.900144
0.90566
0.932912
0.929343
0.917664
0.925774
0.973141
1.004611
0.993256
0.972817
0.962111
0.978008
1.043867
1.131788
1.21387
1.281351
1.323528
1.326447
1.303737
1.277134
1.206408
1.122055
1.041921
0.945565
0.85148
0.771994
0.732413
0.729169
0.75999
0.82001
0.901766
1.00526
1.106158
1.20511
1.307955
1.387441
1.403662
1.330016
1.217438
1.091883
0.966004
0.859266
0.790811
0.759016
0.758692
0.801193
0.879705
0.980279
1.090261
1.200892
1.295951
1.353051
1.377059
1.330665
1.209328
1.054898
0.89398
0.739551
0.628595
0.576362
0.577659
0.679531
0.846937
1.020508
1.208679
1.358242
1.453949
1.509103
1.523378
1.514618
1.461735
1.354997
1.208354
1.035432
0.852777
0.706459
0.638977
0.640599
0.731764
0.901766
1.103563
1.292382
1.425399
1.482824
1.509751
1.496774
1.402364
1.212247
0.982874
0.773291
0.622431
0.546189
0.619511
0.808655
0.987416
1.119136
1.223278
1.312172
1.398147
1.464655
1.494828
1.496125
1.470495
1.396525
1.270321
1.13114
1.018562
0.942645
0.902415
0.915393
0.935507
0.955622
1.00818
1.094479
1.195701
1.302115
1.434483
1.554199
1.614218
1.6246
1.561336
1.446163
1.306333
1.167151
1.048734
0.958542
0.896575
0.854075
0.870945
0.945565
1.060089
1.216465
1.375437
1.475362
1.512347
1.509427
1.4679
1.377059
1.274863
1.170071
1.064631
0.968599
0.912797
0.893007
0.893656
0.945889
1.020508
1.112647
1.220683
1.312497
1.374788
1.426372
1.44227
1.360188
1.228794
1.087017
0.940698
0.81417
0.725924
0.762585
0.898522
1.026348
1.148983
1.278107
1.400093
1.501641
1.565229
1.57626
1.557767
1.53311
1.459789
1.378681
1.311524
1.235282
1.152876
1.087666
1.035108
1.007531
1.026348
1.100967
1.197648
1.29076
1.360513
1.397174
1.408204
1.407231
1.384521
1.323852
1.258317
1.203812
1.106158
1.007531
0.949782
0.932263
0.938103
1.012073
1.130491
1.264481
1.392632
1.485743
1.552576
1.581775
1.570096
1.504885
1.386467
1.22198
1.052952
0.89106
0.753177
0.690237
0.721382
0.804437
0.921881
1.063009
1.239824
1.446487
1.624276
1.71025
1.730365
1.707006
1.606108
1.457518
1.303413
1.159365
1.036081
0.948485
0.905011
0.89106
0.915717
0.969248
1.042894
1.122055
1.206083
1.289462
1.340398
1.35662
1.342345
1.258641
1.137953
1.036081
0.950756
0.858617
0.795353
0.771345
0.782051
0.844018
0.929668
1.014993
1.097399
1.160663
1.204786
1.219061
1.207705
1.132113
0.979306
0.795028
0.619835
0.502067
0.482925
0.59161
0.779456
0.990661
1.172018
1.2966
1.38225
1.45038
1.488014
1.473739
1.403338
1.28784
1.138277
1.018237
0.927397
0.860239
0.853426
0.84272
0.812872
0.815468
0.856346
0.930316
1.023428
1.135033
1.252477
1.347536
1.387765
1.389387
1.352402
1.255072
1.124002
0.971844
0.816765
0.667851
0.567602
0.54035
0.590961
0.721707
0.928045
1.136979
1.272267
1.323528
1.304386
1.248259
1.181751
1.115567
1.104861
1.14509
1.164556
1.132113
1.083773
1.062036
1.062036
1.085395
1.151579
1.24242
1.344291
1.447136
1.53311
1.576909
1.582424
1.552252
1.462709
1.333585
1.187591
1.043867
0.946862
0.907931
0.928045
1.031539
1.190511
1.356944
1.493854
1.598646
1.686567
1.755995
1.783572
1.775461
1.721605
1.599619
1.426372
1.240797
1.067875
0.927397
0.85959
0.869648
0.936156
1.040948
1.154823
1.284596
1.460113
1.665803
1.826072
1.853649
1.812446
1.72777
1.609352
1.477308
1.362784
1.304062
1.267076
1.248259
1.247611
1.289138
1.375761
1.468549
1.568149
1.633035
1.631089
1.609352
1.601566
1.599295
1.586966
1.641471
1.741396
1.746587
1.675536
1.599943
1.55647
1.543492
1.570745
1.626547
1.697597
1.767026
1.816664
1.823153
1.776434
1.703437
1.619734
1.490934
1.357268
1.280054
1.219061
1.151579
1.154823
1.215167
1.290436
1.392307
1.509751
1.628818
1.738476
1.820233
1.862733
1.869871
1.846187
1.769297
1.643093
1.488014
1.323852
1.147686
0.974115
0.850182
0.796975
0.824227
0.950756
1.17656
1.425399
1.593779
1.677158
1.699868
1.68462
1.636604
1.532137
1.404311
1.274214
1.155148
1.063658
1.005585
0.992283
1.001042
1.030241
1.06528
1.108429
1.165205
1.226522
1.289787
1.337154
1.357917
1.345589
1.281027
1.177858
1.106483
1.100319
1.108429
1.098048
1.06528
1.034135
1.045814
1.08799
1.157743
1.26513
1.381601
1.49353
1.572042
1.57334
1.490934
1.377059
1.235607
1.095777
0.98255
0.886843
0.848235
0.882301
0.968599
1.076311
1.185644
1.300168
1.406258
1.498721
1.568149
1.585993
1.553225
1.457518
1.325799
1.179804
1.04257
0.944267
0.882949
0.849533
0.827147
0.827472
0.85959
0.917339
1.00526
1.118487
1.286542
1.46498
1.573664
1.587939
1.497099
1.360513
1.226198
1.108754
1.015317
0.964706
0.944916
0.945889
0.988065
1.04257
1.108429
1.166503
1.198297
1.194404
1.158067
1.115891
1.055547
1.022455
1.046463
1.088315
1.082799
1.008504
0.920583
0.845964
0.814819
0.847911
0.949782
1.120758
1.333585
1.48769
1.531488
1.518835
1.474713
1.376086
1.257668
1.138277
1.016291
0.907931
0.816765
0.735982
0.665905
0.621133
0.596801
0.621782
0.746039
0.955946
1.15969
1.329692
1.46498
1.546737
1.523702
1.426697
1.2966
1.164232
1.052952
0.987092
0.945889
0.933885
0.969573
1.029268
1.099345
1.175587
1.250206
1.290436
1.295626
1.287516
1.245015
1.165529
1.077284
0.990985
0.920259
0.86543
0.83688
0.833636
0.873865
0.954649
1.054898
1.157743
1.247611
1.314768
1.340722
1.333909
1.282974
1.151903
0.999745
0.850506
0.700943
0.575713
0.536456
0.558193
0.611725
0.718138
0.84564
0.994229
1.151254
1.273565
1.359864
1.386143
1.354997
1.288165
1.191808
1.051329
0.876785
0.731115
0.621458
0.54035
0.518613
0.56598
0.662336
0.751555
0.867377
1.043219
1.229118
1.375761
1.486392
1.520133
1.464655
1.35662
1.241446
1.136979
1.041596
0.940049
0.849857
0.790162
0.768749
0.795028
0.864132
0.954
1.060089
1.189213
1.271618
1.306657
1.331314
1.305359
1.236904
1.171369
1.080528
0.987741
0.921232
0.877758
0.850831
0.853102
0.880029
0.938103
1.025699
1.123678
1.216465
1.277134
1.292707
1.269347
1.201217
1.111349
1.023104
0.942969
0.875163
0.84272
0.834933
0.855048
0.91961
1.005909
1.093505
1.157743
1.188888
1.184671
1.160663
1.121407
1.066578
1.035108
1.016291
0.978008
0.91961
0.852128
0.78562
0.739551
0.734035
0.769398
0.841422
0.960164
1.071769
1.137304
1.149308
1.118162
1.05652
1.007531
0.978332
0.912148
0.839476
0.795028
0.787891
0.81125
0.875163
0.986119
1.115567
1.238526
1.323203
1.361811
1.33618
1.264805
1.187591
1.092208
0.978332
0.88522
0.817414
0.763234
0.733062
0.745715
0.781402
0.834933
0.927072
1.037379
1.131788
1.215167
1.275836
1.291409
1.2966
1.295302
1.237229
1.163583
1.087666
0.982874
0.87711
0.797624
0.766803
0.772643
0.816441
0.902091
1.018886
1.134059
1.217763
1.274863
1.298546
1.288813
1.235282
1.129517
1.006233
0.87127
0.738902
0.620484
0.53743
0.515044
0.558518
0.667527
0.810926
0.985794
1.15677
1.277134
1.354349
1.388738
1.381276
1.328394
1.203488
1.044841
0.867052
0.676611
0.497525
0.378458
0.307732
0.257445
0.339202
0.550407
0.831689
1.123678
1.408204
1.580478
1.608054
1.561985
1.449083
1.292382
1.106807
0.924152
0.780429
0.685695
0.636706
0.630542
0.670771
0.752203
0.868674
1.018562
1.167476
1.268699
1.312497
1.310875
1.258641
1.149632
1.023104
0.900469
0.792757
0.704836
0.652927
0.646439
0.681153
0.755772
0.845315
0.941347
1.041921
1.133086
1.195701
1.219061
1.219385
1.160663
1.035108
0.883274
0.73436
0.610751
0.521857
0.48325
0.502716
0.56014
0.662985
0.788864
0.915717
1.028944
1.117513
1.163907
1.162609
1.099345
0.952378
0.762261
0.570846
0.407008
0.328496
0.332065
0.366454
0.406359
0.492009
0.630542
0.774589
0.927072
1.061711
1.138277
1.127571
1.046138
0.93129
0.801193
0.700294
0.632813
0.615618
0.61432
0.606209
0.592583
0.598423
0.646114
0.723005
0.81709
0.917339
1.006558
1.070146
1.077933
1.031215
0.957569
0.860564
0.752852
0.659416
0.626
0.630866
0.634435
0.636057
0.646114
0.682775
0.738253
0.787566
0.822605
0.848235
0.862835
0.873865
0.929019
1.005909
1.019535
0.954
0.855697
0.760639
0.689588
0.658118
0.658118
0.702241
0.785944
0.875812
0.964706
1.041596
1.089612
1.097399
1.072417
1.021806
0.932912
0.834285
0.730142
0.621458
0.531914
0.490712
0.482276
0.502716
0.586419
0.703539
0.813197
0.936481
1.064631
1.149308
1.149957
1.097399
0.994878
0.874839
0.783998
0.715867
0.663634
0.640599
0.663309
0.673691
0.68018
0.720734
0.781078
0.839151
0.952702
1.078582
1.156121
1.173316
1.169747
1.140224
1.072093
0.946214
0.821956
0.7256
0.661038
0.628595
0.632164
0.69121
0.808006
0.936156
1.056196
1.170396
1.258317
1.286542
1.277783
1.251179
1.175587
1.066902
0.954649
0.858293
0.782376
0.727871
0.676286
0.630217
0.624053
0.658443
0.73436
0.861212
1.018562
1.174613
1.277134
1.296275
1.241771
1.157743
1.061062
0.978008
0.922854
0.867701
0.832987
0.834285
0.86543
0.937454
1.032188
1.131464
1.227496
1.308604
1.340398
1.314768
1.253775
1.14801
1.017913
0.88522
0.768101
0.665256
0.571171
0.543594
0.587068
0.66558
0.780429
0.949782
1.094803
1.181102
1.280054
1.330989
1.308604
1.247611
1.152876
1.040623
0.943943
0.883598
0.873216
0.875487
0.834933
0.75415
0.716516
0.738902
0.815792
0.939725
1.148334
1.364082
1.458816
1.47082
1.441621
1.399769
1.316714
1.200892
1.082475
0.990336
0.945565
0.928045
0.932263
0.978008
1.026997
1.068849
1.121082
1.185969
1.230091
1.256695
1.260588
1.22198
1.15969
1.077284
0.97379
0.890736
0.844018
0.835258
0.845315
0.890736
0.972817
1.075337
1.172342
1.258317
1.330989
1.363108
1.376734
1.368948
1.304062
1.20511
1.095452
0.986119
0.887167
0.824227
0.796326
0.804112
0.868999
0.972168
1.099021
1.221332
1.315741
1.37641
1.391009
1.371868
1.306982
1.172667
0.986119
0.741173
0.489089
0.285671
0.211376
0.316167
0.530617
0.822605
1.084746
1.31055
1.480228
1.599943
1.662559
1.65899
1.597348
1.477308
1.333261
1.164232
0.94816
0.727222
0.564682
0.459566
0.420634
0.513422
0.739226
0.989363
1.202515
1.393929
1.541546
1.630116
1.663208
1.612596
1.47893
1.308928
1.139899
0.992932
0.89106
0.850182
0.849533
0.85959
0.909228
0.979306
1.054574
1.13633
1.229118
1.329692
1.386143
1.401067
1.371868
1.283947
1.167476
1.030566
0.902091
0.803788
0.770047
0.796975
0.870297
0.983848
1.103887
1.214519
1.31639
1.395876
1.422155
1.414368
1.374139
1.269023
1.13114
0.993256
0.868026
0.774265
0.726898
0.730467
0.766478
0.840124
0.956595
1.09675
1.220683
1.289787
1.289787
1.235607
1.163583
1.075662
0.993256
0.99942
1.033161
1.024077
0.957569
0.883598
0.846289
0.825201
0.823903
0.858293
0.938427
1.051978
1.184671
1.275187
1.301142
1.321257
1.28784
1.163907
0.998123
0.835907
0.740199
0.676286
0.669798
0.753501
0.925774
1.123029
1.260588
1.346562
1.415017
1.467575
1.485419
1.471144
1.427021
1.338776
1.239824
1.127895
1.010451
0.898847
0.811574
0.756097
0.73436
0.774589
0.876461
1.002016
1.129842
1.25345
1.346887
1.387116
1.394903
1.365055
1.284271
1.177858
1.05944
0.933561
0.8398
0.804112
0.800219
0.819361
0.88814
0.985145
1.090261
1.196675
1.2966
1.371543
1.40788
1.410151
1.357593
1.261237
1.140224
1.015317
0.896575
0.787566
0.70873
0.652927
0.628595
0.65455
0.711001
0.771994
0.827472
0.917988
1.06528
1.246962
1.452003
1.572691
1.524675
1.360837
1.193106
1.057169
0.969248
0.929992
0.917339
0.923828
0.939076
0.947836
0.964706
1.007531
1.067875
1.116865
1.183698
1.247286
1.250206
1.196999
1.135357
1.086368
1.040299
1.007207
0.990985
0.992607
1.04841
1.135682
1.235282
1.337478
1.425724
1.475362
1.483148
1.457518
1.382899
1.25637
1.117189
0.989363
0.88522
0.81417
0.793731
0.812872
0.858293
0.944591
1.053276
1.170396
1.285569
1.372517
1.404635
1.392307
1.352402
1.264157
1.151579
1.039974
0.944267
0.86251
0.800544
0.765505
0.759016
0.813197
0.924477
1.023428
1.064956
1.053276
1.007531
0.933885
0.883598
0.897873
0.965031
1.072093
1.131464
1.144441
1.113945
1.075662
1.046787
1.038028
1.061062
1.094154
1.135033
1.226198
1.305684
1.331314
1.318986
1.289787
1.223603
1.107456
0.956271
0.829418
0.767452
0.780753
0.838502
0.894953
0.994554
1.153201
1.304386
1.420533
1.509751
1.574638
1.603837
1.603188
1.566527
1.479579
1.364406
1.237878
1.112971
1.009478
0.937454
0.903064
0.895602
0.930641
0.992932
1.073066
1.15969
1.218736
1.251828
1.271294
1.286542
1.274214
1.230091
1.155148
1.064956
0.972492
0.880029
0.816441
0.781727
0.786918
0.850182
0.941671
1.092208
1.24242
1.34202
1.433185
1.508129
1.561985
1.525649
1.401067
1.266752
1.162609
1.036406
0.903064
0.804437
0.748635
0.768749
0.855048
0.986767
1.154174
1.326447
1.450705
1.518187
1.549981
1.545763
1.475037
1.358891
1.228469
1.099021
0.988065
0.942969
0.961786
1.035432
1.129842
1.216465
1.307306
1.393605
1.454922
1.471793
1.432212
1.349482
1.25053
1.134384
1.054249
1.049383
1.094479
1.111025
1.097399
1.091234
1.112971
1.183698
1.269023
1.351429
1.428319
1.490934
1.523053
1.521106
1.491583
1.412746
1.274214
1.090586
0.894953
0.734035
0.658767
0.700943
0.820659
1.011749
1.229442
1.392632
1.507156
1.57626
1.61357
1.615841
1.586317
1.53311
1.439025
1.320932
1.192457
1.060413
0.95108
0.879056
0.858293
0.89106
0.998771
1.127571
1.251828
1.369921
1.466926
1.549981
1.59897
1.615516
1.591508
1.513645
1.415666
1.318661
1.232362
1.159365
1.116865
1.099021
1.106483
1.157094
1.229442
1.315092
1.425724
1.537004
1.617463
1.640822
1.617463
1.545114
1.443243
1.329692
1.232362
1.157094
1.09383
1.054898
1.032512
1.049707
1.120433
1.219061
1.326447
1.428968
1.495476
1.502289
1.473739
1.411449
1.291733
1.172667
1.077933
0.981577
0.881976
0.791784
0.723653
0.650656
0.619835
0.70581
0.868674
1.05652
1.244042
1.366353
1.398471
1.365055
1.294978
1.220034
1.175911
1.124975
1.041596
0.973466
0.965355
1.013371
1.088315
1.204786
1.354024
1.487366
1.562309
1.595726
1.583397
1.540897
1.509751
1.483797
1.432212
1.334883
1.209328
1.091234
1.002989
0.959515
0.952053
0.991634
1.076635
1.172667
1.264481
1.348833
1.407231
1.419884
1.377059
1.29076
1.160663
1.023428
0.896575
0.828769
0.860239
0.915717
0.962111
1.002665
1.069173
1.157094
1.260588
1.363757
1.444541
1.496125
1.507805
1.490934
1.431888
1.318337
1.180129
1.044841
0.902091
0.756097
0.636706
0.560464
0.534185
0.593881
0.751555
0.958866
1.168449
1.40204
1.577558
1.672616
1.70441
1.643417
1.521431
1.377383
1.226847
1.087017
0.982874
0.924801
0.898522
0.908255
0.961137
1.011424
1.020184
1.002016
1.006233
1.046463
1.119136
1.275187
1.434808
1.504236
1.464331
1.348833
1.2249
1.13633
1.085395
1.069498
1.103238
1.166503
1.240797
1.314119
1.371868
1.403987
1.403338
1.380628
1.325474
1.221332
1.109078
1.019535
0.925774
0.849208
0.827147
0.851804
0.907606
0.992932
1.097399
1.21387
1.333909
1.43351
1.489961
1.510076
1.496774
1.419559
1.310226
1.180778
1.038677
0.904686
0.805735
0.786269
0.829743
0.922854
1.060413
1.178182
1.286542
1.380952
1.415342
1.379005
1.291733
1.172018
1.050356
0.973141
0.963408
1.007531
1.024726
1.002665
0.978981
0.962111
1.007856
1.105185
1.232362
1.36765
1.496774
1.581775
1.600268
1.573664
1.491908
1.362784
1.209328
1.052303
0.909228
0.805735
0.764532
0.763559
0.798273
0.901118
1.039325
1.16488
1.266103
1.318337
1.300493
1.25929
1.211923
1.122704
1.068524
1.070471
1.076311
1.061711
1.028944
1.006233
1.002989
1.032837
1.103238
1.198297
1.297249
1.381925
1.442918
1.468224
1.463358
1.419559
1.319959
1.187266
1.046138
0.915068
0.809952
0.751879
0.747986
0.798597
0.907282
1.031863
1.13633
1.23074
1.294004
1.320283
1.320283
1.34202
1.338776
1.27097
1.172991
1.078257
0.990336
0.902415
0.821956
0.752852
0.718787
0.740848
0.806059
0.946538
1.152228
1.36473
1.49645
1.566851
1.571718
1.464655
1.316714
1.166503
1.01694
0.905011
0.840449
0.820334
0.823578
0.86835
0.933561
0.996176
1.072742
1.161636
1.236255
1.285245
1.339425
1.389387
1.381925
1.322554
1.231065
1.124651
1.026673
0.960164
0.928045
0.937778
0.994878
1.076635
1.1678
1.262859
1.349807
1.417288
1.461411
1.475686
1.428643
1.336829
1.229442
1.1253
1.031863
0.980603
0.960489
0.959191
0.978981
1.036406
1.118162
1.209328
1.285245
1.332936
1.344291
1.318337
1.243393
1.107456
0.949782
0.812548
0.729493
0.697374
0.711974
0.774914
0.847911
0.928045
1.009153
1.083773
1.155796
1.209976
1.250206
1.314768
1.369921
1.401391
1.401067
1.321257
1.177858
1.036406
0.943294
0.922854
0.967302
1.015966
1.080528
1.153201
1.218412
1.271943
1.321905
1.359864
1.371868
1.365379
1.323528
1.252477
1.165529
1.059765
0.959515
0.886843
0.857968
0.86251
0.913446
1.003638
1.1107
1.220034
1.312497
1.360513
1.352726
1.321581
1.27389
1.179804
1.076311
0.988714
0.921232
0.862186
0.802815
0.769723
0.789513
0.903713
1.058142
1.213221
1.362135
1.454922
1.49353
1.487041
1.452327
1.396849
1.302764
1.190835
1.062036
0.932263
0.816116
0.731764
0.704836
0.756745
0.847262
0.94232
1.073715
1.276485
1.454922
1.562634
1.588588
1.553874
1.461411
1.291409
1.081502
0.874514
0.696401
0.581228
0.579281
0.703539
0.912473
1.099021
1.238526
1.32807
1.391334
1.445189
1.473415
1.469197
1.43059
1.34202
1.232038
1.115567
0.99942
0.90566
0.856995
0.829418
0.818712
0.868674
0.958542
1.060738
1.172342
1.274538
1.356295
1.399445
1.410151
1.383223
1.301466
1.198621
1.095777
1.002016
0.922206
0.881003
0.880678
0.905011
0.97379
1.06528
1.167476
1.272916
1.359215
1.41372
1.429941
1.415017
1.354673
1.251179
1.128869
1.001042
0.873216
0.758043
0.665905
0.586094
0.536781
0.550407
0.599072
0.692184
0.893331
1.112971
1.271294
1.385494
1.458816
1.42767
1.318986
1.175587
1.020508
0.870945
0.775887
0.74539
0.766478
0.841422
0.955622
1.061711
1.149957
1.216141
1.244042
1.232362
1.229767
1.250206
1.284596
1.290436
1.253775
1.173965
1.074688
0.989363
0.931939
0.905335
0.935507
1.002665
1.089937
1.209003
1.321257
1.392956
1.41891
1.404311
1.33618
1.221332
1.090261
0.961462
0.847262
0.77102
0.744742
0.752852
0.793082
0.881652
0.98839
1.101616
1.206083
1.28784
1.330989
1.33618
1.306657
1.226847
1.118811
0.994554
0.858941
0.737604
0.651954
0.61432
0.622755
0.705161
0.849533
1.006882
1.127571
1.21095
1.247286
1.225225
1.161312
1.063009
0.926748
0.79957
0.701917
0.662011
0.679855
0.745066
0.823254
0.901766
0.992932
1.08507
1.187591
1.286542
1.377383
1.43643
1.443243
1.410151
1.325799
1.208679
1.079231
0.927072
0.779131
0.66266
0.588041
0.555273
0.615618
0.755448
0.928045
1.119784
1.269023
1.364406
1.400742
1.386467
1.321257
1.184995
1.02797
0.873865
0.750257
0.702241
0.743444
0.815792
0.882625
0.965679
1.051329
1.128869
1.204137
1.276485
1.343642
1.376086
1.366353
1.30763
1.195377
1.060089
0.923828
0.80541
0.732413
0.722031
0.752852
0.816765
0.920908
1.022131
1.11654
1.210625
1.292707
1.345264
1.347211
1.281351
1.148659
0.989363
0.841422
0.708405
0.638328
0.675962
0.763234
0.824876
0.884896
0.974439
1.063658
1.149632
1.227496
1.292707
1.323528
1.314768
1.275512
1.184671
1.063333
0.929019
0.807681
0.716192
0.658118
0.633137
0.630542
0.682126
0.78562
0.893656
0.999096
1.124975
1.233336
1.267076
1.266103
1.214519
1.113296
1.017264
0.947187
0.90566
0.86251
0.812223
0.783673
0.77686
0.817739
0.897873
1.007856
1.109403
1.165205
1.159365
1.104861
1.033161
0.969248
0.933561
0.898522
0.869323
0.860564
0.857644
0.845315
0.829743
0.84564
0.910526
0.997798
1.091883
1.180778
1.253126
1.281027
1.273565
1.226847
1.121082
0.998447
0.876461
0.757719
0.643843
0.549758
0.487792
0.458593
0.488116
0.571819
0.698997
0.872892
1.020833
1.138602
1.220358
1.248259
1.20803
1.104861
0.982225
0.855697
0.712947
0.573117
0.478059
0.42615
0.432963
0.530292
0.673042
0.835582
0.999096
1.106483
1.169747
1.237553
1.319959
1.333261
1.235282
1.092532
0.946214
0.815792
0.721707
0.685371
0.665256
0.670447
0.714569
0.777185
0.839476
0.915393
1.000069
1.051005
1.070471
1.066253
1.029268
0.985145
0.94816
0.90566
0.840449
0.781727
0.750581
0.741822
0.771669
0.831689
0.898847
0.952378
0.957893
0.902091
0.797948
0.70581
0.647088
0.600694
0.601992
0.706134
0.906308
1.028944
1.04257
1.035432
1.051005
1.109727
1.180129
1.243069
1.301142
1.346562
1.36473
1.359864
1.346887
1.293031
1.196026
1.077608
0.954324
0.849533
0.776536
0.747986
0.744093
0.77394
0.85148
0.954973
1.062036
1.162934
1.246637
1.286542
1.283298
1.248908
1.177858
1.089288
0.994229
0.8969
0.812548
0.753177
0.713921
0.677909
0.641572
0.590637
0.566304
0.616591
0.711001
0.866728
1.160338
1.485095
1.609352
1.555172
1.416639
1.252801
1.10259
0.991634
0.930965
0.903713
0.907606
0.959515
1.022779
1.072093
1.111349
1.142495
1.164232
1.192782
1.260912
1.302764
1.278107
1.194728
1.077284
0.956595
0.856346
0.799246
0.76583
0.775238
0.858617
0.978657
1.117513
1.275512
1.425075
1.51624
1.531813
1.482175
1.370895
1.233984
1.089937
0.946214
0.834285
0.776536
0.76583
0.797948
0.916041
1.057818
1.173316
1.285893
1.389063
1.454598
1.475686
1.480228
1.442594
1.355646
1.238202
1.10259
0.94232
0.762261
0.602965
0.487467
0.443993
0.540674
0.745066
1.024726
1.345264
1.575935
1.67067
1.677807
1.641471
1.550305
1.424426
1.291084
1.163258
1.051329
0.964382
0.908904
0.864457
0.85148
0.887816
0.958542
1.04257
1.167151
1.32807
1.435457
1.469197
1.453949
1.370895
1.256695
1.127571
0.984821
0.866728
0.811574
0.819036
0.859915
0.940698
1.051005
1.171369
1.288489
1.374788
1.416315
1.422155
1.408204
1.368948
1.333909
1.318337
1.274214
1.190835
1.106158
1.049058
1.024077
1.037379
1.098372
1.188564
1.282325
1.379005
1.463033
1.523702
1.554199
1.550305
1.481201
1.347536
1.191484
1.046787
0.91377
0.790162
0.690561
0.656172
0.701268
0.801193
0.981577
1.212247
1.434483
1.591184
1.674887
1.704735
1.694353
1.64212
1.546737
1.423128
1.302764
1.201541
1.135033
1.101941
1.077933
1.100643
1.164556
1.256046
1.367975
1.505534
1.634982
1.722254
1.76151
1.739125
1.641471
1.51332
1.383223
1.26805
1.172991
1.115567
1.100319
1.126922
1.200892
1.30763
1.446487
1.589886
1.702464
1.762808
1.768648
1.729067
1.623303
1.482499
1.332612
1.185644
1.067875
0.999096
0.974439
0.980603
1.03965
1.145739
1.266752
1.377708
1.474713
1.552901
1.588588
1.571718
1.509103
1.3962
1.256695
1.114918
1.00526
0.941996
0.927721
0.947836
0.973141
1.002989
1.013371
1.015966
1.029268
1.076959
1.166178
1.292707
1.452651
1.574962
1.579504
1.500992
1.381601
1.249557
1.140224
1.09383
1.085395
1.108105
1.180778
1.268374
1.368948
1.474388
1.558092
1.592806
1.585344
1.552576
1.471468
1.351104
1.221007
1.098372
1.010775
0.943294
0.890736
0.865754
0.890087
0.964057
1.060089
1.190186
1.318337
1.410475
1.455247
1.452976
1.410475
1.318986
1.207381
1.093181
0.988714
0.898198
0.8398
0.815468
0.821307
0.880354
0.979954
1.088963
1.18824
1.257992
1.269347
1.244691
1.21387
1.163907
1.113945
1.121731
1.13633
1.101941
1.027321
0.945565
0.888789
0.857319
0.890087
0.961137
1.056845
1.171369
1.288165
1.357917
1.391658
1.416639
1.372517
1.280378
1.177209
1.052627
0.920908
0.822281
0.772967
0.77686
0.825849
0.909553
1.003314
1.100319
1.187266
1.248908
1.277783
1.29076
1.301142
1.27097
1.243069
1.191159
1.109403
1.026024
0.967626
0.941671
0.947511
1.001367
1.080204
1.166178
1.244366
1.305684
1.345913
1.347536
1.314119
1.235282
1.104536
0.960813
0.832338
0.755772
0.731764
0.782051
0.887491
0.990661
1.097723
1.199919
1.291733
1.372517
1.437728
1.472766
1.475686
1.452003
1.373814
1.256695
1.113296
0.967302
0.84564
0.764856
0.733711
0.741173
0.802166
0.890411
0.971844
1.045165
1.10778
1.158392
1.160338
1.113945
1.059116
0.966004
0.884247
0.852128
0.879056
0.936481
0.994229
1.029592
1.038028
1.068524
1.120758
1.175587
1.190186
1.147686
1.080528
1.023104
1.003314
1.023104
1.077933
1.121731
1.11654
1.07404
1.015317
0.990012
0.98255
0.972817
0.989363
1.038028
1.118811
1.21387
1.298546
1.346238
1.356944
1.330665
1.243069
1.131788
1.033486
0.946214
0.883274
0.853102
0.881976
0.928694
0.994554
1.077933
1.162609
1.249557
1.320608
1.370895
1.38517
1.377059
1.34786
1.26221
1.151254
1.055223
0.971519
0.895602
0.843693
0.810277
0.794055
0.82001
0.851804
0.862186
0.880678
0.8969
0.913122
0.992283
1.130166
1.2249
1.282649
1.269672
1.187266
1.078906
0.983848
0.920908
0.872243
0.846613
0.875163
0.940374
1.023753
1.119784
1.220034
1.296924
1.332287
1.321905
1.255721
1.171694
1.089937
0.993905
0.904037
0.846613
0.817414
0.801517
0.797299
0.841422
0.95692
1.087666
1.17948
1.246962
1.312172
1.3537
1.362135
1.338451
1.293031
1.200568
1.089612
0.989687
0.919935
0.894304
0.902415
0.964706
1.058791
1.152876
1.240473
1.308928
1.351753
1.361486
1.339749
1.274863
1.184671
1.091559
1.008504
0.923828
0.851804
0.813521
0.799246
0.810277
0.873541
0.962435
1.05944
1.156445
1.233984
1.288489
1.332287
1.337154
1.281676
1.189862
1.077933
0.97379
0.890087
0.830391
0.790162
0.767776
0.788215
0.844991
0.91377
0.993256
1.105834
1.224251
1.293355
1.336505
1.327745
1.24242
1.109078
0.936805
0.771994
0.667527
0.666878
0.735333
0.87711
1.047112
1.172018
1.23074
1.255397
1.276485
1.300817
1.324825
1.333909
1.327745
1.285569
1.20219
1.089612
1.003314
0.957244
0.944267
0.935832
0.944267
0.983523
1.030241
1.07404
1.106158
1.141197
1.171369
1.205434
1.225874
1.207057
1.174613
1.1253
1.066902
1.015317
0.99131
0.988065
0.997149
1.035432
1.092208
1.15969
1.23366
1.314443
1.38517
1.413071
1.416315
1.395227
1.320283
1.202515
1.076635
0.959515
0.871919
0.833311
0.818712
0.823903
0.879381
0.960813
1.058467
1.160987
1.251179
1.324501
1.358891
1.361486
1.316066
1.225225
1.112647
1.004611
0.899171
0.783673
0.674015
0.595179
0.561438
0.575388
0.664607
0.863808
1.106807
1.333909
1.479579
1.546088
1.553874
1.488014
1.37641
1.245988
1.118811
1.00526
0.912148
0.844342
0.794704
0.781078
0.79146
0.821632
0.892033
1.016615
1.142495
1.226522
1.348509
1.459464
1.471144
1.386143
1.249557
1.103563
0.978008
0.900793
0.86543
0.870621
0.942969
1.054574
1.159041
1.226847
1.257668
1.258641
1.245988
1.241122
1.253775
1.255397
1.192457
1.084421
0.972168
0.882625
0.833311
0.810277
0.817414
0.862186
0.933561
1.028619
1.139899
1.255721
1.358242
1.429617
1.443243
1.382899
1.285893
1.171694
1.056196
0.961137
0.904362
0.883598
0.886194
0.930316
1.005585
1.092532
1.178182
1.25053
1.300817
1.311524
1.292382
1.2249
1.112323
1.003314
0.914744
0.866403
0.832014
0.836556
0.872243
0.909553
0.969897
1.064307
1.166827
1.250855
1.314768
1.339749
1.311524
1.240473
1.09967
0.921557
0.757394
0.637679
0.593232
0.633786
0.728844
0.810926
0.908579
1.035757
1.164232
1.292382
1.409826
1.498072
1.537977
1.542843
1.514293
1.428319
1.301791
1.139575
0.963733
0.804761
0.693806
0.647736
0.697374
0.83688
1.0111
1.165529
1.283622
1.36473
1.419884
1.443243
1.440972
1.400418
1.308928
1.192457
1.075337
0.966977
0.879381
0.830716
0.813845
0.829743
0.894304
0.980928
1.071769
1.161961
1.238202
1.281676
1.294653
1.288489
1.243393
1.168125
1.076311
0.984172
0.901118
0.837853
0.819361
0.825849
0.853102
0.920908
1.004611
1.084421
1.160987
1.223927
1.233336
1.198946
1.140548
1.047761
0.998771
1.018237
1.03673
1.018237
0.979954
0.943294
0.929019
0.977683
1.0682
1.180129
1.282974
1.349158
1.381601
1.374463
1.329367
1.235607
1.089288
0.934534
0.793082
0.678233
0.604911
0.603614
0.663309
0.762585
0.935507
1.138602
1.306333
1.423453
1.496125
1.524675
1.514942
1.473091
1.376734
1.243393
1.093505
0.937454
0.790162
0.65974
0.598098
0.627622
0.724627
0.890736
1.069173
1.219385
1.352402
1.447785
1.488014
1.492557
1.45914
1.377708
1.274214
1.164556
1.049383
0.952378
0.88522
0.856995
0.858293
0.897549
0.977359
1.076311
1.175587
1.261237
1.33618
1.387765
1.400418
1.363108
1.273241
1.163583
1.047112
0.93421
0.827796
0.764856
0.73728
0.739875
0.803788
0.914095
1.027321
1.128544
1.206083
1.234958
1.20511
1.142495
1.04257
0.931939
0.86835
0.822605
0.784647
0.767127
0.818063
0.873541
0.927072
1.014344
1.121407
1.234633
1.338451
1.413395
1.43059
1.403987
1.3391
1.221007
1.07112
0.908579
0.771994
0.677584
0.635084
0.664931
0.768101
0.958542
1.155148
1.287516
1.37933
1.447785
1.486717
1.490285
1.479255
1.451029
1.375761
1.257668
1.122704
0.989363
0.881327
0.82001
0.798922
0.830067
0.919935
1.022455
1.116865
1.204786
1.288489
1.3537
1.39328
1.409502
1.363108
1.260912
1.137628
1.006882
0.893007
0.812548
0.779131
0.7827
0.826823
0.917339
1.025699
1.110052
1.143792
1.142819
1.114269
1.080528
1.051978
1.043219
1.063982
1.072093
1.041272
0.977683
0.926748
0.932912
0.95692
0.984172
1.018562
1.061387
1.103887
1.130166
1.15969
1.149957
1.098696
1.055871
1.036081
1.021157
1.024402
1.012722
0.999096
0.99131
0.978981
0.984821
1.034783
1.10778
1.189862
1.277783
1.35078
1.382899
1.38517
1.374463
1.30763
1.209328
1.112323
1.001691
0.927397
0.886518
0.87711
0.870945
0.888465
0.959515
1.058467
1.172342
1.293355
1.387441
1.409826
1.364406
1.268699
1.122704
0.98547
0.897549
0.894304
0.91669
0.954
0.981577
0.981577
1.005585
1.062684
1.149308
1.252801
1.345913
1.403338
1.401391
1.365379
1.294004
1.192782
1.083773
0.978657
0.887491
0.817414
0.775887
0.753826
0.761936
0.828769
0.933885
1.062684
1.223603
1.394254
1.494503
1.518511
1.487041
1.39912
1.28492
1.163583
1.046463
0.943618
0.861861
0.809303
0.781727
0.787891
0.813521
0.838178
0.877758
0.915393
0.952378
1.000394
1.101616
1.212896
1.259939
1.252801
1.219061
1.15677
1.070471
0.994554
0.947187
0.924801
0.946214
0.998447
1.075337
1.160987
1.255072
1.356944
1.437079
1.467251
1.420208
1.306008
1.133735
0.918637
0.708081
0.550731
0.471895
0.481303
0.624377
0.881327
1.12822
1.31931
1.43643
1.505209
1.534408
1.532462
1.500343
1.412746
1.288489
1.158067
1.039001
0.943294
0.875487
0.858617
0.876785
0.949133
1.055871
1.16488
1.259939
1.335532
1.394903
1.415666
1.393929
1.339425
1.247611
1.142495
1.035108
0.935183
0.85667
0.820334
0.816116
0.823254
0.856346
0.905335
0.969897
1.039974
1.105834
1.167151
1.202839
1.204786
1.141197
1.037379
0.943294
0.891709
0.881003
0.893007
0.917988
0.929019
0.951404
1.017913
1.098696
1.163583
1.202515
1.209003
1.224576
1.238526
1.237553
1.201866
1.185644
1.184995
1.156121
1.104861
1.049058
1.016291
1.008829
1.038028
1.062684
1.058467
1.040623
0.965355
0.844666
0.779131
0.83104
0.939725
1.072093
1.244042
1.342993
1.330341
1.254424
1.172342
1.113945
1.092857
1.130166
1.202839
1.29076
1.372517
1.441945
1.483148
1.483797
1.443567
1.355646
1.237229
1.108105
0.983848
0.874514
0.791135
0.753826
0.756097
0.797299
0.893007
1.018562
1.14509
1.265779
1.35662
1.412097
1.428968
1.40496
1.32223
1.212572
1.096425
0.981577
0.879381
0.796975
0.75707
0.754799
0.794055
0.859266
0.919935
0.971195
1.023753
1.065604
1.090586
1.135033
1.191159
1.187591
1.141197
1.087666
1.02797
0.969573
0.920908
0.899171
0.911175
0.966977
1.029592
1.068849
1.079879
1.053276
0.988065
0.940374
1.004936
1.11946
1.19343
1.266103
1.30763
1.278107
1.209652
1.151254
1.103238
1.081826
1.104536
1.149957
1.19635
1.236904
1.268374
1.279405
1.272267
1.264805
1.249233
1.211274
1.144766
1.068524
0.995527
0.927072
0.857644
0.809952
0.816116
0.869648
0.958542
1.083448
1.21679
1.321581
1.397822
1.447785
1.425724
1.33618
1.224251
1.103563
0.988065
0.897873
0.844342
0.820659
0.824876
0.880354
0.966653
1.0536
1.106807
1.119136
1.108754
1.094803
1.108429
1.115891
1.135357
1.162285
1.139575
1.085719
1.029268
0.994229
0.977035
0.992932
1.060413
1.149632
1.24242
1.330341
1.398796
1.416315
1.367001
1.244042
1.0536
0.855697
0.703539
0.613671
0.607507
0.730467
0.886843
0.978657
1.061711
1.165854
1.265779
1.358242
1.43643
1.491583
1.508454
1.492232
1.437403
1.328394
1.188564
1.041921
0.880678
0.700943
0.561762
0.485196
0.469948
0.57409
0.74831
0.949133
1.153201
1.316714
1.417288
1.48185
1.514293
1.48185
1.379654
1.245664
1.10778
0.989039
0.894304
0.838827
0.821956
0.840773
0.905984
0.989039
1.097074
1.203488
1.288813
1.326123
1.317688
1.271618
1.184022
1.088639
1.005909
0.95108
0.936805
0.9394
0.95692
0.975088
1.013046
1.084746
1.174289
1.268374
1.357268
1.425075
1.450056
1.435132
1.379005
1.261886
1.118811
0.971519
0.823903
0.701917
0.643519
0.646763
0.694455
0.790162
0.911824
1.049058
1.181102
1.257668
1.24534
1.190186
1.136655
1.057494
0.966328
0.930641
0.965355
1.020184
1.035108
1.037703
1.045165
1.087017
1.162285
1.247935
1.329367
1.38225
1.395876
1.35078
1.274538
1.194404
1.088639
0.995852
0.950431
0.92253
0.909553
0.92253
0.937129
0.956271
1.011749
1.105185
1.209652
1.295626
1.317363
1.259615
1.161961
1.076311
1.017264
0.992932
1.052303
1.124651
1.134708
1.125949
1.108754
1.080528
1.071444
1.117189
1.19343
1.277134
1.359864
1.42767
1.460113
1.445838
1.405933
1.331314
1.222629
1.10259
0.99131
0.893656
0.820983
0.794704
0.806708
0.851155
0.939725
1.059765
1.17948
1.280703
1.349158
1.371543
1.368299
1.351104
1.296275
1.222305
1.130166
1.025699
0.925125
0.856346
0.824227
0.805086
0.820334
0.858617
0.881327
0.871594
0.852453
0.854075
0.900144
1.024402
1.190186
1.289787
1.301791
1.271294
1.240149
1.202839
1.173965
1.146712
1.118811
1.139899
1.192133
1.243717
1.276809
1.331314
1.378357
1.375112
1.343318
1.307955
1.267076
1.222305
1.146388
1.039001
0.919935
0.832338
0.788215
0.799895
0.890411
1.031539
1.199919
1.369597
1.483797
1.529542
1.52208
1.479255
1.392307
1.285569
1.165854
1.044516
0.932587
0.843693
0.789513
0.773616
0.810277
0.89982
1.031215
1.183049
1.327745
1.443243
1.491583
1.488988
1.442594
1.342669
1.225549
1.108105
0.993905
0.897873
0.847586
0.837205
0.851804
0.914095
0.996825
1.077284
1.135357
1.149308
1.106158
1.01986
0.929019
0.830391
0.802815
0.860564
0.96795
1.070146
1.128869
1.152876
1.15093
1.162609
1.219061
1.297573
1.380628
1.458491
1.516564
1.537653
1.521106
1.467575
1.359864
1.225874
1.089937
0.954324
0.819361
0.693157
0.57993
0.4972
0.493307
0.597125
0.804437
1.055223
1.326772
1.528244
1.626871
1.626871
1.549656
1.415991
1.271618
1.13633
1.025699
0.944267
0.903389
0.900144
0.927397
1.000718
1.093505
1.183049
1.241771
1.248259
1.214519
1.172018
1.136006
1.091559
1.075986
1.096425
1.076311
1.026348
0.9965
0.998123
1.007207
1.041921
1.115891
1.210301
1.307955
1.394578
1.443892
1.437079
1.399445
1.328718
1.207381
1.093505
0.995852
0.903389
0.824227
0.794704
0.80249
0.827796
0.900144
0.997149
1.084097
1.140224
1.176884
1.21387
1.258317
1.323203
1.364082
1.340398
1.271618
1.187591
1.09383
1.011424
0.970546
0.960489
0.975412
1.041272
1.135357
1.226522
1.308604
1.368624
1.384521
1.362135
1.31931
1.229442
1.094803
0.929668
0.773291
0.655523
0.620484
0.660389
0.763883
0.901118
1.039325
1.163907
1.269672
1.365379
1.447136
1.495476
1.511698
1.487041
1.403987
1.284271
1.157743
1.051654
0.95984
0.888789
0.856346
0.851155
0.864781
0.890736
0.93421
1.012722
1.112971
1.229442
1.323203
1.387116
1.393929
1.328718
1.243717
1.158716
1.05944
0.945889
0.841422
0.759016
0.705161
0.715867
0.836556
1.051329
1.262534
1.447785
1.57042
1.602863
1.547385
1.416964
1.261237
1.113296
0.997474
0.926423
0.898847
0.911824
0.928045
0.97087
1.051005
1.150281
1.255072
1.351753
1.42767
1.449732
1.415342
1.314443
1.148983
0.963084
0.77394
0.646763
0.602965
0.611725
0.692832
0.84564
0.993581
1.111025
1.217114
1.311848
1.37057
1.402689
1.406907
1.389712
1.349807
1.300817
1.247611
1.173316
1.087017
0.992607
0.907931
0.859266
0.867377
0.94232
1.050681
1.171045
1.299195
1.412097
1.476984
1.498396
1.48769
1.42475
1.31931
1.183373
1.045165
0.923179
0.834933
0.797948
0.802166
0.861861
0.967302
1.08507
1.197972
1.293031
1.34494
1.322879
1.269347
1.206083
1.094803
0.994229
0.954
0.91085
0.892033
0.911824
0.936805
0.957244
1.009153
1.094154
1.192457
1.292382
1.382574
1.445838
1.457518
1.428968
1.346238
1.19927
1.023753
0.82293
0.610427
0.443993
0.396302
0.438154
0.547812
0.789837
1.137304
1.44227
1.622005
1.709601
1.729067
1.704735
1.657692
1.566203
1.440323
1.299844
1.15969
1.040948
0.955298
0.911499
0.895278
0.913446
0.974439
1.057169
1.142495
1.217438
1.246637
1.184671
1.077608
0.968599
0.863159
0.791135
0.804112
0.904362
0.992283
1.041596
1.067551
1.079231
1.124651
1.201541
1.278107
1.343967
1.395876
1.427995
1.428643
1.406258
1.349807
1.249233
1.120433
0.971844
0.818063
0.670771
0.574739
0.534185
0.538727
0.617889
0.793731
1.039974
1.282325
1.483148
1.631413
1.703762
1.679429
1.573989
1.431888
1.284271
1.14509
1.023104
0.927397
0.874839
0.847911
0.838827
0.863808
0.927721
1.021806
1.149632
1.310875
1.439025
1.506831
1.512022
1.428643
1.303088
1.166827
1.041272
0.937778
0.873216
0.848235
0.849533
0.893656
0.960813
1.043219
1.138277
1.223927
1.283622
1.314119
1.321257
1.291733
1.218087
1.110052
0.962435
0.791135
0.629244
0.51991
0.478059
0.537105
0.7256
0.994878
1.263183
1.474713
1.601241
1.643742
1.63044
1.580478
1.475686
1.331963
1.168774
0.997474
0.831365
0.708405
0.653252
0.657145
0.745066
0.929668
1.133086
1.308604
1.46206
1.543817
1.550954
1.521106
1.457842
1.348833
1.217438
1.04257
0.816441
0.60556
0.449833
0.356721
0.364832
0.56598
0.860564
1.097074
1.272916
1.398796
1.483472
1.545763
1.562634
1.518187
1.420208
1.297573
1.154174
1.015966
0.893007
0.805735
0.742795
0.711325
0.738577
0.772643
0.807681
0.917015
1.088639
1.236255
1.388089
1.537977
1.612596
1.571718
1.459464
1.309901
1.164232
1.055871
0.998123
0.977359
1.001042
1.062684
1.145739
1.240473
1.333261
1.403662
1.428968
1.424101
1.388738
1.299195
1.183049
1.067551
0.956271
0.858617
0.795028
0.760963
0.751879
0.793406
0.873216
0.970546
1.086692
1.219709
1.320608
1.357917
1.348509
1.277783
1.156121
1.023428
0.890411
0.780429
0.718787
0.712298
0.715867
0.707432
0.738253
0.79438
0.858941
0.953027
1.081177
1.157094
1.139899
1.072742
1.002016
0.969248
0.965679
1.007856
1.056196
1.108105
1.157094
1.180453
1.216465
1.280378
1.358242
1.435457
1.503587
1.538626
1.529217
1.49353
1.426697
1.317039
1.19343
1.073715
0.960813
0.864781
0.806384
0.786593
0.79146
0.835582
0.901442
0.995203
1.098372
1.184022
1.254748
1.295951
1.313146
1.286542
1.209328
1.106483
0.990661
0.880029
0.797624
0.769723
0.783349
0.823254
0.907282
1.003314
1.10259
1.204461
1.294653
1.353375
1.381925
1.383872
1.327096
1.217438
1.065929
0.887816
0.712947
0.571495
0.497849
0.4972
0.604263
0.780429
0.961462
1.129842
1.273565
1.371543
1.391334
1.378357
1.345913
1.241771
1.111674
1.008504
0.923503
0.855697
0.819361
0.812223
0.828769
0.892358
0.991958
1.107132
1.232362
1.353051
1.441296
1.482824
1.456869
1.363433
1.245664
1.119784
0.98839
0.86835
0.783998
0.765505
0.782376
0.827147
0.916041
1.038352
1.166178
1.278432
1.352402
1.362784
1.31931
1.237229
1.109078
0.968599
0.867052
0.83688
0.850506
0.875163
0.906957
0.936156
0.99131
1.070795
1.166827
1.261237
1.340398
1.392632
1.408529
1.396849
1.35078
1.269996
1.159365
1.032512
0.908579
0.806384
0.758368
0.762585
0.799895
0.8969
1.01402
1.123029
1.233011
1.33618
1.401391
1.415991
1.392632
1.321581
1.210301
1.08507
0.965031
0.860888
0.780429
0.739551
0.738902
0.767776
0.827472
0.883598
0.915068
0.958218
1.024726
1.076959
1.141521
1.254099
1.332287
1.31931
1.231713
1.106158
0.984496
0.89106
0.815468
0.757394
0.741822
0.763559
0.823578
0.932912
1.063982
1.217438
1.349482
1.426048
1.422155
1.360513
1.280054
1.169423
1.059116
0.963733
0.887816
0.856995
0.855048
0.880678
0.905335
0.954
1.037054
1.098696
1.147686
1.237878
1.365055
1.441296
1.415991
1.318986
1.202515
1.09675
1.005585
0.944591
0.903713
0.88522
0.903713
0.952053
1.028944
1.122055
1.237229
1.327421
1.387116
1.408529
1.344616
1.234633
1.110376
0.990012
0.894953
0.838827
0.818712
0.834933
0.892682
0.969573
1.053925
1.14217
1.220358
1.282974
1.330016
1.377059
1.380303
1.308928
1.195701
1.072417
0.943294
0.819685
0.732413
0.667202
0.610102
0.601018
0.629893
0.722031
0.89398
1.070146
1.229767
1.337478
1.374463
1.329692
1.215816
1.078257
0.958866
0.888465
0.865106
0.904686
0.971519
1.026348
1.102265
1.179804
1.238202
1.28492
1.323852
1.333261
1.317688
1.282649
1.208679
1.120433
1.034459
0.953027
0.879056
0.851804
0.860888
0.897873
0.97963
1.078906
1.178507
1.27097
1.332612
1.346238
1.310226
1.246962
1.155472
1.028944
0.958866
0.929343
0.897549
0.860888
0.883598
0.931939
0.988065
1.070795
1.163907
1.249882
1.309577
1.318986
1.281351
1.220358
1.140224
1.052303
0.997149
0.999745
0.984172
0.936156
0.873865
0.826823
0.791784
0.770372
0.779131
0.805086
0.825201
0.860564
0.904686
0.928045
0.986443
1.079879
1.111674
1.112647
1.144441
1.151903
1.124002
1.069822
0.984821
0.873541
0.786918
0.767776
0.824552
0.931614
1.07404
1.252153
1.372841
1.403662
1.332936
1.235282
1.141521
1.092208
1.103887
1.11654
1.147686
1.156121
1.153201
1.197324
1.268699
1.345589
1.406907
1.45038
1.463358
1.447136
1.415666
1.353375
1.243069
1.114594
0.992607
0.8969
0.824227
0.795677
0.801841
0.837853
0.915068
1.017264
1.133735
1.249233
1.345264
1.398147
1.412746
1.392632
1.314768
1.20803
1.092857
0.97963
0.880029
0.811899
0.782051
0.784647
0.840449
0.933885
1.042894
1.157743
1.258641
1.331963
1.362135
1.362135
1.321257
1.232038
1.126922
1.01986
0.906957
0.801517
0.742795
0.727547
0.746039
0.811574
0.927397
1.073066
1.199595
1.292058
1.34494
1.353051
1.315092
1.21679
1.083448
0.957569
0.857319
0.729493
0.601343
0.507906
0.459242
0.486494
0.629893
0.865754
1.068524
1.221656
1.348509
1.489637
1.577882
1.569771
1.477308
1.338127
1.177533
1.027646
0.925774
0.888465
0.904037
0.974764
1.079555
1.162285
1.224251
1.26805
1.300168
1.314768
1.312497
1.308279
1.280054
1.208354
1.128869
1.04841
0.9965
0.954649
0.937454
0.94232
0.96276
1.034783
1.138602
1.240473
1.337154
1.411449
1.449083
1.448434
1.415342
1.335856
1.225225
1.098372
0.96276
0.84272
0.760639
0.730142
0.753826
0.832338
0.95108
1.079879
1.201866
1.309577
1.389712
1.425724
1.427346
1.3962
1.306657
1.192133
1.0682
0.932912
0.796975
0.683748
0.613996
0.589663
0.646763
0.774914
0.93129
1.089937
1.214519
1.257668
1.240149
1.182724
1.096425
0.979306
0.898522
0.851155
0.801517
0.736631
0.722356
0.77102
0.84856
0.975088
1.126273
1.25345
1.312497
1.324825
1.299844
1.277134
1.254748
1.202839
1.142495
1.123353
1.11946
1.090261
1.04257
0.999745
0.976061
0.993581
1.055223
1.136655
1.220358
1.295951
1.348509
1.357917
1.327096
1.267076
1.166827
1.063982
0.98839
0.927072
0.883923
0.86835
0.869972
0.881976
0.941347
1.03089
1.126598
1.223278
1.308928
1.367326
1.376086
1.352078
1.295626
1.194404
1.071444
0.957244
0.864781
0.790811
0.751879
0.748959
0.780429
0.864781
0.971195
1.094154
1.215816
1.310875
1.359215
1.376086
1.357268
1.273565
1.143144
1.001691
0.867377
0.744417
0.639301
0.592259
0.585446
0.60264
0.673367
0.773616
0.909553
1.017588
1.09091
1.140224
1.160338
1.136006
1.065604
1.027646
1.048085
1.072093
1.076311
1.084097
1.085395
1.080204
1.112647
1.17364
1.239824
1.295951
1.319959
1.321905
1.305035
1.282325
1.238851
1.209003
1.229767
1.245664
1.203163
1.125949
1.06528
1.032188
1.036081
1.090586
1.160663
1.230091
1.30244
1.361811
1.381276
1.366028
1.332612
1.256046
1.154174
1.054249
0.974439
0.903064
0.841422
0.812872
0.811574
0.850831
0.938752
1.056196
1.177209
1.294329
1.396849
1.447136
1.446163
1.406258
1.312172
1.189213
1.063658
0.940698
0.836231
0.769074
0.732413
0.716192
0.740524
0.787566
0.799246
0.766154
0.752203
0.77978
0.832662
0.943943
1.124651
1.297573
1.364082
1.320932
1.207381
1.106158
1.053925
1.045814
1.074688
1.141197
1.216465
1.292382
1.357268
1.40788
1.41891
1.37057
1.239824
1.034135
0.813845
0.614644
0.47741
0.466704
0.580904
0.757719
0.940374
1.119136
1.26221
1.361486
1.435781
1.504885
1.559065
1.576584
1.554847
1.491583
1.371543
1.210301
1.045165
0.892358
0.76291
0.69121
0.67142
0.678233
0.77978
0.942645
1.081826
1.201866
1.331638
1.441296
1.483148
1.480228
1.42475
1.317363
1.180778
1.035108
0.899495
0.79438
0.725276
0.677909
0.669798
0.718138
0.813845
0.946862
1.09383
1.259939
1.37641
1.426048
1.431888
1.399445
1.327096
1.233336
1.122704
1.011749
0.92253
0.867377
0.840449
0.854724
0.906633
0.989363
1.09383
1.195377
1.286218
1.335207
1.340074
1.297897
1.196026
1.07112
0.941671
0.828445
0.791784
0.799895
0.808006
0.824876
0.914095
1.023428
1.119136
1.203163
1.257343
1.237229
1.169098
1.074364
0.924152
0.770372
0.667202
0.582526
0.557869
0.641572
0.772967
0.901442
1.025699
1.168774
1.318337
1.455247
1.575935
1.659639
1.687864
1.672941
1.625574
1.515591
1.361811
1.192457
1.030241
0.882625
0.771345
0.744742
0.773616
0.853751
0.994229
1.149957
1.278756
1.361162
1.415666
1.436754
1.423453
1.380303
1.298546
1.19343
1.076635
0.950756
0.835258
0.750581
0.684073
0.63995
0.646114
0.702565
0.793731
0.89982
0.987092
1.055871
1.111998
1.151903
1.170396
1.154174
1.164232
1.218736
1.222305
1.16488
1.097074
1.053925
1.040623
1.067875
1.127895
1.203163
1.284596
1.358891
1.405284
1.419235
1.394578
1.301142
1.156121
0.996176
0.833311
0.697699
0.643519
0.67434
0.745066
0.859915
1.03381
1.214519
1.362784
1.460438
1.517862
1.529866
1.512347
1.461087
1.357593
1.236255
1.117513
1.006233
0.912148
0.853426
0.822281
0.809303
0.846613
0.924152
1.023104
1.140548
1.244042
1.318986
1.370895
1.391658
1.333261
1.209003
1.046138
0.870297
0.693806
0.541323
0.448535
0.466055
0.588041
0.775563
0.990012
1.19927
1.371543
1.477633
1.527271
1.558092
1.554523
1.485419
1.388089
1.272592
1.13925
0.990661
0.827147
0.637355
0.44886
0.322332
0.308705
0.42031
0.703214
1.078582
1.391983
1.580153
1.676509
1.668399
1.570745
1.449407
1.332287
1.215816
1.114918
1.054898
1.033486
1.036081
1.073715
1.126598
1.191159
1.257343
1.31347
1.354673
1.367001
1.345589
1.278107
1.17948
1.069173
0.964057
0.874839
0.808006
0.800219
0.830391
0.875812
0.954
1.057818
1.169423
1.276161
1.363433
1.406582
1.411124
1.388738
1.317688
1.215492
1.096425
0.964057
0.838178
0.735333
0.66558
0.635084
0.658118
0.723653
0.804112
0.888789
0.977683
1.054574
1.119784
1.199919
1.234958
1.181751
1.061062
0.899495
0.740524
0.631515
0.608156
0.674015
0.807032
0.983848
1.151254
1.294329
1.425724
1.535057
1.596699
1.615516
1.594104
1.519809
1.408529
1.279405
1.141846
1.00818
0.904037
0.835258
0.796651
0.797299
0.846289
0.913122
0.998771
1.091234
1.191808
1.270321
1.333909
1.389712
1.368299
1.300493
1.197972
1.082799
0.970546
0.881652
0.83688
0.827796
0.865754
0.931939
1.006233
1.079231
1.122055
1.137304
1.134384
1.121407
1.134059
1.133735
1.104212
1.049383
0.981577
0.911824
0.866079
0.852453
0.85959
0.903389
0.975088
1.062036
1.153525
1.247611
1.334558
1.381276
1.389063
1.343642
1.237878
1.087666
0.909228
0.72268
0.559167
0.476761
0.477734
0.578633
0.756097
0.952053
1.157419
1.355646
1.49353
1.555172
1.559065
1.526946
1.448758
1.348833
1.235931
1.11654
0.999096
0.897549
0.832662
0.806384
0.840124
0.952053
1.097074
1.244366
1.37641
1.465629
1.474064
1.437079
1.374463
1.281351
1.172667
1.058791
0.951404
0.864457
0.824227
0.809628
0.811899
0.863159
0.938427
1.00818
1.087666
1.195053
1.255721
1.257668
1.238526
1.171369
1.084097
0.994554
0.920908
0.867701
0.840124
0.851155
0.881003
0.900793
0.920908
0.944267
0.945565
0.919935
0.916041
1.024402
1.196675
1.321257
1.365055
1.413071
1.424101
1.329043
1.191808
1.087017
1.032512
1.020184
1.07112
1.157419
1.250206
1.350455
1.438701
1.507156
1.534084
1.514293
1.439674
1.311524
1.155148
0.987416
0.827472
0.721707
0.689264
0.735982
0.853426
0.986767
1.105185
1.212896
1.30763
1.387765
1.431888
1.444865
1.425075
1.333909
1.192133
1.047436
0.916041
0.80541
0.729169
0.709378
0.729818
0.78562
0.899171
1.035757
1.171369
1.306333
1.410475
1.466602
1.498721
1.513969
1.456545
1.345264
1.210625
1.074688
0.957244
0.884247
0.857968
0.867052
0.924801
1.011424
1.111349
1.21679
1.302764
1.345913
1.328394
1.252801
1.133086
0.975737
0.830391
0.746364
0.72268
0.799895
0.93129
1.003962
1.031863
1.060413
1.103887
1.151254
1.201866
1.225874
1.237878
1.219385
1.180453
1.1253
1.067551
0.994554
0.917664
0.868026
0.884572
0.914095
0.917988
0.929992
0.995852
1.091234
1.1824
1.264157
1.367001
1.482499
1.562958
1.600917
1.56458
1.476659
1.359864
1.220683
1.090586
0.975412
0.872243
0.800544
0.798922
0.861537
0.961786
1.121407
1.295626
1.409826
1.442594
1.45038
1.421506
1.357917
1.320283
1.308279
1.267076
1.198621
1.138926
1.100643
1.094154
1.138926
1.213545
1.298871
1.377059
1.415666
1.408529
1.361811
1.286542
1.178831
1.073715
0.998771
0.950107
0.942645
0.942645
0.94524
0.956595
0.99942
1.088315
1.194404
1.288489
1.362784
1.405609
1.408529
1.380628
1.323852
1.2249
1.09967
0.94232
0.77102
0.619511
0.512124
0.473192
0.517964
0.643519
0.840773
1.0682
1.296924
1.491259
1.620707
1.705059
1.733934
1.691109
1.57626
1.436105
1.289787
1.139575
0.993905
0.861537
0.741822
0.652927
0.619835
0.63411
0.677909
0.771345
0.930965
1.047112
1.116865
1.233336
1.364406
1.439674
1.440323
1.411773
1.353375
1.278756
1.216141
1.185644
1.198297
1.256695
1.333585
1.408204
1.484446
1.549332
1.552576
1.444541
1.252477
1.014669
0.758043
0.519586
0.396626
0.406359
0.49136
0.584472
0.685046
0.836556
1.062036
1.305035
1.478282
1.621031
1.719983
1.715766
1.662559
1.574313
1.470495
1.363757
1.213221
1.042245
0.880029
0.772967
0.724627
0.710352
0.792433
0.915717
1.004611
1.05652
1.137953
1.202839
1.212572
1.183698
1.154823
1.116216
1.112323
1.142819
1.175262
1.166827
1.122055
1.084421
1.087017
1.140873
1.218412
1.301142
1.373814
1.419235
1.431563
1.421182
1.387441
1.308604
1.211599
1.104212
1.004611
0.931614
0.892682
0.890411
0.917664
0.992932
1.097399
1.207057
1.311524
1.400418
1.457842
1.471468
1.452976
1.392956
1.286542
1.162934
1.041921
0.933236
0.849208
0.809952
0.814494
0.846289
0.921557
1.015317
1.108105
1.193106
1.264157
1.304062
1.306982
1.285893
1.221332
1.131464
1.03673
0.944591
0.86835
0.821307
0.820659
0.84564
0.895927
0.978981
1.070795
1.132762
1.141846
1.120109
1.06236
0.968275
0.866403
0.821307
0.794704
0.754474
0.815468
0.941671
1.041921
1.116865
1.166503
1.189537
1.209003
1.231713
1.269672
1.306008
1.346238
1.391334
1.43351
1.434483
1.346887
1.217763
1.056845
0.870621
0.709378
0.58869
0.494605
0.510177
0.673691
0.882301
1.101292
1.308604
1.460762
1.539924
1.557118
1.538301
1.46498
1.347536
1.223278
1.107132
1.003962
0.930965
0.916366
0.934534
0.986119
1.079879
1.191159
1.289462
1.374788
1.445838
1.482824
1.500992
1.483472
1.395551
1.269996
1.130815
1.007531
0.909228
0.850831
0.832338
0.84564
0.91085
1.00818
1.118162
1.230416
1.326447
1.389712
1.410475
1.396525
1.333585
1.232362
1.115242
0.989363
0.865106
0.748959
0.64579
0.55138
0.488441
0.489414
0.556571
0.745715
0.987741
1.210301
1.359539
1.451678
1.521106
1.497747
1.40204
1.286218
1.165529
1.060413
0.963733
0.894953
0.868026
0.87127
0.906308
0.946862
1.013695
1.097723
1.189862
1.243393
1.303413
1.381925
1.409178
1.360188
1.256695
1.132437
1.014669
0.937454
0.90274
0.90566
0.958866
1.036081
1.115242
1.192782
1.257668
1.30244
1.315741
1.314119
1.272916
1.186617
1.076635
0.963733
0.86835
0.812548
0.809303
0.819036
0.847586
0.930316
1.044841
1.173316
1.297573
1.399769
1.46498
1.487041
1.472442
1.400093
1.295302
1.178507
1.060738
0.95692
0.882301
0.847911
0.838178
0.856995
0.913122
0.988065
1.0682
1.118162
1.133735
1.09967
1.045165
0.997798
0.941023
0.942969
0.996825
1.043219
1.089937
1.117189
1.13114
1.132437
1.156121
1.187266
1.200892
1.230416
1.233984
1.151903
1.027646
0.94524
0.876785
0.79957
0.807357
0.923828
1.052303
1.102914
1.107456
1.107456
1.110052
1.151254
1.21387
1.288489
1.371868
1.452976
1.512347
1.533435
1.500343
1.404311
1.263183
1.106158
0.965679
0.885869
0.888789
0.930965
0.971519
1.057818
1.161961
1.242744
1.327096
1.41891
1.494828
1.519809
1.509103
1.463358
1.370246
1.252477
1.127895
1.008504
0.917015
0.873541
0.863483
0.86835
0.898198
0.942645
1.004287
1.081826
1.173316
1.282974
1.39036
1.44746
1.42475
1.326123
1.18824
1.04841
0.925125
0.819361
0.744417
0.688615
0.664282
0.698997
0.772318
0.874839
1.012073
1.138602
1.243069
1.341047
1.409178
1.423777
1.378357
1.241771
1.049058
0.873216
0.770696
0.756745
0.755772
0.787566
0.848235
0.893656
0.948809
1.061387
1.233984
1.406258
1.518511
1.587615
1.589886
1.521106
1.416315
1.294653
1.168774
1.069173
0.998447
0.946862
0.929668
0.953351
1.016615
1.1253
1.245015
1.380628
1.516889
1.57918
1.549008
1.451678
1.329043
1.19343
1.064631
0.963733
0.90566
0.889438
0.915393
0.993256
1.097723
1.208679
1.323852
1.423453
1.480228
1.495152
1.47601
1.401716
1.295951
1.177209
1.052303
0.938103
0.855373
0.815468
0.798273
0.825525
0.90274
1.006558
1.12238
1.240473
1.352078
1.426048
1.430266
1.369272
1.25637
1.12238
0.97087
0.802815
0.655198
0.560464
0.5543
0.63703
0.845315
1.06528
1.244042
1.375112
1.460762
1.508778
1.53895
1.58502
1.595077
1.504236
1.354673
1.197972
1.063333
0.961137
0.88522
0.824227
0.789189
0.814819
0.872243
0.959191
1.089612
1.2395
1.363433
1.417288
1.427346
1.37349
1.274214
1.17072
1.07404
0.985794
0.920259
0.884896
0.869972
0.889114
0.949782
1.03673
1.159365
1.303088
1.446163
1.539275
1.581451
1.560038
1.471793
1.360188
1.23366
1.106807
1.004936
0.946862
0.918961
0.923503
0.971519
1.043543
1.133735
1.229442
1.301142
1.332936
1.331638
1.305359
1.243069
1.169747
1.110052
1.061711
1.015642
0.959515
0.913122
0.870945
0.849533
0.873216
0.912797
0.966977
1.047436
1.147037
1.248908
1.317688
1.340398
1.293355
1.215492
1.129842
1.03965
0.952053
0.893656
0.899495
0.93129
0.988714
1.053276
1.098372
1.118162
1.187915
1.275187
1.298546
1.312821
1.348833
1.32807
1.238202
1.136979
1.063982
1.054574
1.063333
1.055223
1.034135
1.038028
1.049383
1.057169
1.085719
1.160014
1.269996
1.372192
1.487041
1.530839
1.462384
1.331314
1.187266
1.058142
0.96276
0.919286
0.916366
0.953027
1.034459
1.140224
1.254099
1.361162
1.442918
1.479904
1.47893
1.445838
1.356944
1.236904
1.104536
0.978008
0.872892
0.80541
0.780105
0.784971
0.835258
0.920583
1.016615
1.118811
1.219061
1.297897
1.335856
1.352078
1.343642
1.276809
1.186942
1.099021
1.009153
0.906633
0.816116
0.744742
0.696726
0.717814
0.815468
0.946214
1.0682
1.165205
1.200892
1.188564
1.175911
1.165854
1.150281
1.134059
1.098696
1.060413
1.031539
1.051654
1.091234
1.133735
1.204786
1.282325
1.345264
1.381276
1.399445
1.389063
1.357593
1.330016
1.292382
1.247935
1.180778
1.085395
0.988714
0.92545
0.903064
0.904037
0.94232
1.008504
1.073066
1.12238
1.163258
1.200892
1.21679
1.220358
1.243393
1.261561
1.233336
1.178507
1.100643
1.017913
0.963408
0.936805
0.933885
0.975737
1.040299
1.117838
1.21095
1.307306
1.379654
1.408204
1.407231
1.358242
1.272592
1.169747
1.063982
0.964057
0.870621
0.808655
0.777509
0.779131
0.834609
0.949133
1.084746
1.183698
1.254424
1.291409
1.312821
1.323528
1.309901
1.276161
1.212572
1.10259
0.953027
0.819361
0.750581
0.758368
0.831689
0.936156
1.063009
1.204137
1.315417
1.400742
1.452003
1.455896
1.397174
1.286218
1.154174
1.024077
0.909553
0.827147
0.800219
0.808006
0.844018
0.950431
1.082475
1.194728
1.295302
1.382899
1.42475
1.384196
1.283947
1.142819
0.982874
0.827147
0.723978
0.743444
0.866403
0.972817
1.026997
1.051005
1.105509
1.191808
1.295951
1.397174
1.502938
1.563607
1.587615
1.568798
1.490285
1.382899
1.254099
1.122704
1.007856
0.92837
0.884896
0.875163
0.91961
1.004287
1.10778
1.210625
1.304386
1.383223
1.425399
1.419884
1.366028
1.268699
1.158392
1.050032
0.960813
0.89106
0.848884
0.837853
0.861537
0.923828
1.005909
1.09967
1.18824
1.240473
1.244366
1.216141
1.141521
1.010127
0.867701
0.772643
0.717489
0.656496
0.613022
0.670122
0.761936
0.857319
0.997798
1.175911
1.323852
1.435781
1.528244
1.586642
1.588913
1.537004
1.403338
1.228469
1.040623
0.840124
0.669473
0.599072
0.619511
0.711649
0.918961
1.159041
1.352402
1.480877
1.561336
1.610325
1.62752
1.613894
1.560363
1.452327
1.321257
1.175587
1.018562
0.879056
0.793082
0.760314
0.783349
0.884896
1.01694
1.168774
1.309253
1.4108
1.459464
1.469522
1.454274
1.388414
1.283298
1.160663
1.040623
0.929668
0.82812
0.76291
0.738253
0.758692
0.837853
0.965031
1.119136
1.255072
1.366353
1.44227
1.461411
1.431239
1.344616
1.238851
1.133411
1.018562
0.903389
0.821956
0.786269
0.787566
0.844342
0.924152
0.992283
1.060089
1.116216
1.140873
1.167476
1.201541
1.193106
1.10259
0.967302
0.843369
0.779456
0.78854
0.872243
0.938103
1.003962
1.121407
1.2395
1.344291
1.448109
1.535057
1.580153
1.583073
1.552576
1.4679
1.347536
1.218087
1.074364
0.936156
0.820659
0.748635
0.73436
0.816441
0.948809
1.105834
1.262859
1.391009
1.482175
1.504885
1.465953
1.374788
1.23074
1.090586
0.978657
0.892033
0.855373
0.881327
0.914744
0.935183
0.9965
1.088963
1.190835
1.288489
1.376086
1.438052
1.45914
1.456869
1.414693
1.310226
1.164232
1.003962
0.852777
0.714894
0.626648
0.599396
0.619511
0.709378
0.853102
1.033486
1.209976
1.357593
1.474713
1.554199
1.559389
1.460762
1.291084
1.123353
0.995203
0.882301
0.807357
0.811574
0.870945
0.971195
1.085719
1.187266
1.281351
1.35662
1.422479
1.459464
1.466926
1.431563
1.349807
1.245988
1.142819
1.029592
0.898847
0.751879
0.607183
0.499147
0.474166
0.564358
0.778482
1.072093
1.392956
1.642768
1.731987
1.716414
1.641146
1.518511
1.382574
1.252153
1.135357
1.041596
0.98839
0.957244
0.951729
0.983848
1.030241
1.08215
1.150605
1.228145
1.287516
1.322879
1.339425
1.315741
1.252801
1.164556
1.069498
0.991958
0.943943
0.936156
0.94816
0.977683
1.044192
1.119784
1.189537
1.247935
1.294978
1.321581
1.281027
1.192133
1.068524
0.914095
0.792109
0.75999
0.795028
0.864781
0.931939
1.004611
1.116216
1.211599
1.284271
1.353051
1.4108
1.44227
1.439025
1.41372
1.3391
1.20219
1.006882
0.785295
0.580904
0.457295
0.485845
0.645141
0.834933
1.029592
1.221332
1.389712
1.526297
1.608703
1.643742
1.651204
1.6246
1.542843
1.425075
1.288813
1.147037
1.018886
0.926748
0.882949
0.875487
0.913446
1.001691
1.109727
1.212572
1.305035
1.382574
1.425075
1.436105
1.414368
1.336505
1.225549
1.106807
0.993581
0.894304
0.830067
0.797299
0.787566
0.821632
0.890087
0.98255
1.093181
1.209328
1.312172
1.383223
1.417288
1.382899
1.277783
1.151254
1.029268
0.917015
0.81417
0.735333
0.67142
0.614969
0.607831
0.661038
0.776211
0.956595
1.175262
1.352078
1.41891
1.4108
1.36473
1.266428
1.117189
0.941347
0.765505
0.661038
0.625351
0.63703
0.739551
0.937454
1.156121
1.362135
1.526946
1.6246
1.648608
1.611623
1.509103
1.320932
1.068849
0.828445
0.652279
0.563384
0.593232
0.702565
0.891385
1.097399
1.278432
1.415017
1.512022
1.584371
1.632062
1.636929
1.598321
1.509103
1.385494
1.252153
1.120433
1.001691
0.906308
0.857319
0.841098
0.851804
0.909553
0.995203
1.097399
1.207705
1.308279
1.393929
1.453949
1.45038
1.374139
1.266428
1.142495
1.017913
0.91085
0.841422
0.820334
0.831689
0.881327
0.971195
1.080853
1.185644
1.268374
1.319634
1.287516
1.178831
1.028619
0.841747
0.678882
0.601343
0.600369
0.665905
0.760314
0.824876
0.868674
0.97087
1.091559
1.210625
1.332612
1.415991
1.444216
1.410151
1.340722
1.238526
1.115242
0.978332
0.837205
0.684073
0.509529
0.378134
0.327198
0.389164
0.544892
0.810277
1.155796
1.457193
1.655097
1.734258
1.719983
1.655421
1.542519
1.380952
1.179804
0.992283
0.834285
0.720734
0.738253
0.860239
1.020833
1.176236
1.319634
1.443567
1.542195
1.614218
1.645364
1.645039
1.596699
1.491908
1.358891
1.231389
1.118162
1.028944
0.976386
0.944591
0.941023
0.993256
1.076959
1.177533
1.285245
1.373814
1.431239
1.440323
1.416639
1.349158
1.241122
1.124327
1.014344
0.920259
0.85148
0.824552
0.823254
0.846937
0.91669
1.010775
1.11946
1.227171
1.349482
1.435781
1.465304
1.424101
1.288489
1.122055
0.981252
0.860888
0.776536
0.769723
0.832987
0.916041
1.021482
1.122055
1.215492
1.311848
1.406258
1.474713
1.491908
1.452976
1.360837
1.21387
1.050032
0.884896
0.752203
0.686993
0.690886
0.715543
0.768749
0.903064
1.068849
1.200568
1.299844
1.358242
1.367001
1.34202
1.290111
1.176884
1.038677
0.918637
0.786269
0.643194
0.553327
0.5543
0.619511
0.788864
1.049707
1.34494
1.574962
1.702139
1.765079
1.780976
1.766053
1.716414
1.608703
1.472442
1.326447
1.180778
1.049058
0.935832
0.85959
0.828445
0.863159
0.945889
1.046138
1.150605
1.250206
1.335532
1.388414
1.420208
1.423128
1.380303
1.305684
1.21095
1.115567
1.027646
0.971844
0.947187
0.947511
0.994554
1.057169
1.112323
1.165205
1.232038
1.29076
1.316714
1.333261
1.322879
1.271618
1.175587
1.057169
0.948809
0.856346
0.80249
0.75999
0.732089
0.735009
0.765505
0.834933
0.958866
1.152228
1.331638
1.481526
1.567825
1.535706
1.433834
1.301466
1.163258
1.040299
0.953027
0.900793
0.868026
0.883923
0.954973
1.059116
1.166827
1.267401
1.338127
1.368624
1.378681
1.341371
1.251179
1.155796
1.060413
0.955298
0.879381
0.857319
0.856995
0.876461
0.943294
1.034459
1.138926
1.248584
1.342669
1.419559
1.456545
1.453625
1.402689
1.314443
1.206408
1.098048
0.999745
0.91961
0.882949
0.871919
0.885869
0.943294
1.01694
1.086044
1.145739
1.19343
1.221656
1.213545
1.178182
1.105509
0.999745
0.843369
0.684073
0.595827
0.594205
0.658767
0.795677
1.010127
1.188888
1.313146
1.407231
1.481526
1.513969
1.477957
1.396849
1.279405
1.135682
1.01402
0.954
0.933561
0.930965
0.932263
0.943618
0.970221
1.035432
1.128544
1.228794
1.301791
1.328394
1.30763
1.24242
1.156121
1.036081
0.936481
0.917015
0.938752
0.943943
0.911499
0.883274
0.888789
0.937129
1.040623
1.159365
1.27097
1.368624
1.429292
1.416964
1.357593
1.275836
1.15677
1.023753
0.916366
0.851155
0.804437
0.77394
0.766803
0.804437
0.896251
1.023104
1.158716
1.299844
1.406907
1.46498
1.47601
1.448434
1.381925
1.268699
1.135033
1.002989
0.877758
0.770047
0.703539
0.657794
0.60264
0.582526
0.602316
0.647412
0.77394
0.995527
1.227171
1.433834
1.549332
1.55647
1.478606
1.347211
1.192133
1.051654
0.926748
0.795353
0.666878
0.601018
0.592583
0.62308
0.748635
0.961786
1.146388
1.25637
1.353375
1.421182
1.401716
1.318661
1.217114
1.109078
0.985794
0.878083
0.816116
0.79146
0.807681
0.863808
0.954
1.057169
1.149957
1.251504
1.341371
1.392956
1.391983
1.331963
1.240149
1.131464
1.025375
0.934858
0.877434
0.851804
0.858941
0.923179
1.016291
1.120109
1.227496
1.324825
1.385494
1.405933
1.38517
1.30763
1.190511
1.04549
0.883274
0.72852
0.604911
0.523155
0.50012
0.579281
0.745066
0.932912
1.122055
1.278107
1.37933
1.414368
1.405933
1.367975
1.282325
1.175587
1.042245
0.867052
0.686668
0.539052
0.421932
0.378134
0.453078
0.621782
0.82812
1.04841
1.244042
1.379979
1.50748
1.611947
1.622978
1.531164
1.390036
1.242095
1.106807
0.992283
0.916041
0.869648
0.859915
0.89106
0.895927
0.810601
0.663958
0.536456
0.467353
0.476761
0.607507
0.841747
1.138602
1.326447
1.329043
1.257343
1.190511
1.171045
1.185644
1.228794
1.292707
1.346887
1.379005
1.388089
1.389387
1.384521
1.356295
1.308604
1.242744
1.184346
1.115242
1.032837
0.957893
0.922854
0.920259
0.934534
0.986119
1.066253
1.158716
1.253775
1.335207
1.392632
1.414693
1.403662
1.349482
1.248908
1.12822
1.004936
0.895602
0.808655
0.766478
0.758692
0.780753
0.850831
0.92837
0.977683
0.992932
0.983523
0.959515
0.940049
0.969248
1.019211
1.088963
1.099994
1.030241
0.917988
0.828445
0.789513
0.789513
0.824227
0.881327
0.955298
1.052952
1.160987
1.282325
1.382899
1.425399
1.409826
1.327421
1.207381
1.054898
0.895278
0.752203
0.649034
0.601343
0.64287
0.798922
1.004287
1.216141
1.394578
1.531488
1.610325
1.61357
1.548359
1.411124
1.225549
1.043867
0.892033
0.792433
0.781727
0.83396
0.8969
0.949782
1.020833
1.111349
1.212896
1.314119
1.398796
1.452327
1.464331
1.440323
1.351753
1.229442
1.099021
0.976061
0.871594
0.801517
0.777834
0.78562
0.823903
0.897873
0.986119
1.074364
1.158392
1.238526
1.298222
1.337154
1.334883
1.267401
1.14801
0.988065
0.81709
0.667202
0.576037
0.542621
0.567602
0.703863
0.888465
0.992932
1.015642
1.019211
1.012398
0.98839
0.989363
1.063009
1.130166
1.138602
1.129517
1.149957
1.145739
1.134708
1.134059
1.160663
1.235607
1.318986
1.391983
1.450056
1.49061
1.498721
1.47601
1.419559
1.295951
1.123029
0.943943
0.784322
0.686019
0.707756
0.833311
0.952378
1.050681
1.149632
1.245664
1.323528
1.386467
1.437079
1.462384
1.465304
1.427346
1.334234
1.216465
1.090586
0.964057
0.844991
0.766154
0.726249
0.709054
0.75123
0.847911
0.966977
1.087017
1.207057
1.312172
1.379005
1.400093
1.362135
1.277458
1.172991
1.067551
0.971195
0.890736
0.844991
0.819361
0.819685
0.834609
0.829418
0.809303
0.79957
0.778158
0.780429
0.878407
1.051654
1.197648
1.284596
1.283947
1.22782
1.150605
1.087341
1.069498
1.086368
1.131464
1.190511
1.231713
1.273565
1.314443
1.332287
1.334234
1.354997
1.370246
1.329367
1.221656
1.077284
0.941671
0.826498
0.753826
0.746688
0.837529
0.987416
1.124975
1.251179
1.35662
1.432537
1.477633
1.485743
1.458816
1.385494
1.269996
1.142819
1.018237
0.903713
0.815143
0.782376
0.78562
0.799246
0.850506
0.934534
1.028944
1.130166
1.234958
1.296924
1.31639
1.296275
1.239175
1.171045
1.091559
1.023428
0.969897
0.930316
0.91377
0.915717
0.95108
1.032837
1.137628
1.235931
1.314443
1.358242
1.344616
1.272592
1.161961
1.044841
0.898198
0.698023
0.496876
0.353477
0.28924
0.335958
0.543269
0.860564
1.128544
1.319634
1.439674
1.490285
1.48769
1.469522
1.431888
1.361486
1.263183
1.133086
0.971844
0.827796
0.715867
0.658767
0.651954
0.708405
0.85148
1.061711
1.278107
1.456869
1.596699
1.691758
1.725499
1.708953
1.62752
1.49061
1.336505
1.195377
1.074364
0.978332
0.932587
0.925774
0.95692
1.021157
1.111674
1.211274
1.302764
1.380952
1.422804
1.415991
1.376734
1.293031
1.191159
1.079879
0.97671
0.896251
0.846613
0.836231
0.865106
0.916041
0.969897
1.030566
1.106158
1.175587
1.227496
1.269672
1.321257
1.337478
1.296275
1.202515
1.07112
0.944591
0.848235
0.798597
0.792757
0.841747
0.947836
1.055547
1.163907
1.274538
1.36765
1.4108
1.392632
1.331963
1.226198
1.092532
0.947511
0.818712
0.723005
0.663634
0.647736
0.677909
0.775563
0.927072
1.104861
1.283298
1.423777
1.515591
1.548359
1.531813
1.466278
1.337154
1.184995
1.04257
0.918637
0.822605
0.76583
0.719111
0.669149
0.644168
0.650656
0.705161
0.815143
0.987741
1.197972
1.394578
1.512996
1.509751
1.397498
1.245015
1.104212
1.004287
0.950107
0.97671
1.020184
1.04549
1.08799
1.144117
1.214194
1.289462
1.350455
1.356944
1.307306
1.231389
1.129193
1.056196
1.034135
1.026673
0.997149
0.974115
0.974764
0.978981
1.002016
1.04841
1.111025
1.178182
1.229442
1.261886
1.232687
1.161312
1.067551
0.970221
0.910202
0.892033
0.912797
0.932912
0.8969
0.861537
0.851804
0.891385
1.006558
1.198621
1.382899
1.503263
1.550954
1.535706
1.471468
1.368299
1.211599
1.035108
0.870945
0.723978
0.617889
0.594205
0.629568
0.703214
0.847262
1.041596
1.229767
1.392307
1.521106
1.595726
1.612921
1.584695
1.486068
1.351104
1.207381
1.069498
0.961137
0.891385
0.864132
0.868999
0.920259
1.009153
1.108429
1.204461
1.291409
1.354024
1.360188
1.314119
1.212896
1.069173
0.932263
0.826498
0.754474
0.751879
0.821307
0.893656
0.938427
0.994878
1.06528
1.122055
1.17072
1.190511
1.170071
1.115242
1.039325
0.921557
0.81125
0.776211
0.767452
0.762261
0.778482
0.821956
0.850831
0.854724
0.876461
0.913122
0.94524
0.985145
1.043543
1.116216
1.215816
1.31347
1.373814
1.361486
1.314768
1.250855
1.185969
1.129193
1.097074
1.079555
1.088639
1.11946
1.15969
1.213545
1.287191
1.360837
1.406582
1.424101
1.419559
1.36473
1.271294
1.166503
1.059765
0.969248
0.911175
0.882949
0.884247
0.946862
1.049707
1.153525
1.250206
1.327745
1.373814
1.383872
1.366028
1.304386
1.201541
1.087341
0.971195
0.865754
0.786593
0.754474
0.764207
0.810601
0.89398
1.003962
1.122055
1.235607
1.32807
1.378032
1.3962
1.366353
1.258317
1.110376
0.955946
0.796002
0.646763
0.556571
0.512448
0.512773
0.592908
0.763883
0.99131
1.239824
1.438701
1.540572
1.543492
1.478606
1.369272
1.204137
0.981901
0.780429
0.627297
0.532563
0.543918
0.645141
0.784647
0.965679
1.143144
1.293355
1.429941
1.544466
1.623627
1.658341
1.634982
1.525324
1.361811
1.186942
1.030566
0.905011
0.815792
0.781727
0.803464
0.860888
0.964057
1.084421
1.203812
1.31347
1.392956
1.423128
1.412097
1.35662
1.252801
1.1253
1.007207
0.914744
0.849208
0.822281
0.835258
0.875487
0.95692
1.073066
1.195377
1.304386
1.395551
1.439025
1.430266
1.377059
1.259939
1.094479
0.924477
0.757719
0.592908
0.473517
0.446913
0.498498
0.612698
0.841098
1.115567
1.363757
1.546412
1.654772
1.703762
1.701166
1.657043
1.562309
1.415991
1.247611
1.089937
0.978332
0.908579
0.87711
0.871594
0.90566
0.981901
1.09967
1.220358
1.330016
1.413071
1.439674
1.405284
1.310875
1.155148
0.999096
0.863159
0.769723
0.763883
0.830391
0.887816
0.904686
0.910526
0.935832
0.996825
1.105509
1.235607
1.360837
1.443567
1.461735
1.40788
1.311848
1.202515
1.061711
0.916366
0.800219
0.729169
0.705161
0.730467
0.812548
0.923503
1.04549
1.17072
1.292058
1.390685
1.453625
1.48185
1.449083
1.377383
1.286218
1.183049
1.081502
1.000069
0.960164
0.942969
0.961786
1.012398
1.077608
1.150605
1.224251
1.292707
1.335207
1.347211
1.311524
1.226847
1.129193
1.026673
0.933885
0.857644
0.812223
0.806059
0.806708
0.830716
0.881652
0.951404
1.022455
1.078257
1.136006
1.138926
1.101616
1.040299
0.971195
0.918961
0.909228
0.931614
0.951729
0.956595
0.97379
1.033486
1.144117
1.260588
1.361162
1.439674
1.503587
1.539275
1.525649
1.468549
1.36765
1.246313
1.115567
0.974439
0.848884
0.75415
0.698348
0.673042
0.700943
0.793731
0.9394
1.100643
1.243393
1.3537
1.434483
1.480228
1.475037
1.388089
1.25637
1.122704
1.005909
0.915717
0.864132
0.844991
0.847911
0.891385
0.972168
1.069173
1.168449
1.249882
1.303088
1.363757
1.422479
1.405609
1.31055
1.177533
1.020184
0.876461
0.767776
0.716192
0.704188
0.726573
0.830716
0.983199
1.144117
1.286542
1.383223
1.43643
1.465304
1.449407
1.370895
1.245015
1.083773
0.890411
0.704512
0.578308
0.537105
0.599072
0.780753
0.996825
1.176884
1.303413
1.369921
1.371868
1.304711
1.216465
1.122055
1.050032
1.026024
1.013046
0.974439
0.91669
0.877758
0.872568
0.904037
0.990985
1.099021
1.212572
1.301142
1.339749
1.372192
1.378032
1.35078
1.283298
1.181426
1.067227
0.970221
0.91377
0.885545
0.894953
0.924152
0.97671
1.069498
1.162934
1.211923
1.24534
1.271294
1.282974
1.289138
1.315741
1.340074
1.325474
1.255072
1.150605
1.03965
0.954973
0.908904
0.893656
0.917988
0.991634
1.09091
1.189537
1.267401
1.320283
1.330016
1.295302
1.219385
1.091883
0.943943
0.823578
0.708081
0.606209
0.585121
0.64287
0.713596
0.841422
1.050356
1.255397
1.425724
1.548359
1.595726
1.568149
1.500018
1.394903
1.259615
1.112647
0.964706
0.848235
0.770696
0.744093
0.75123
0.791784
0.893331
1.010775
1.117189
1.200244
1.26221
1.267401
1.219709
1.153201
1.071769
1.018237
1.015966
1.009802
0.991958
0.983848
0.997474
1.023428
1.083124
1.175911
1.273241
1.36765
1.44746
1.503587
1.512022
1.48477
1.422479
1.304711
1.146063
0.97671
0.824227
0.711974
0.661038
0.714569
0.849857
1.003638
1.134384
1.247286
1.344291
1.422804
1.472442
1.478282
1.460438
1.397498
1.270321
1.104212
0.929668
0.760639
0.606209
0.50596
0.483574
0.537754
0.686668
0.875812
1.077284
1.276161
1.404635
1.449083
1.461411
1.452003
1.3962
1.297897
1.172991
1.058791
0.977035
0.91961
0.87419
0.820659
0.784647
0.801193
0.865754
0.976061
1.109727
1.26221
1.401067
1.472117
1.460762
1.374463
1.251504
1.108429
0.969248
0.864132
0.808655
0.806708
0.839151
0.940374
1.106158
1.259615
1.372517
1.455571
1.509427
1.523378
1.490934
1.389063
1.244366
1.089612
0.933885
0.799895
0.704188
0.670771
0.675962
0.715218
0.813521
0.940049
1.06236
1.178182
1.264481
1.284596
1.248584
1.177209
1.073066
0.97671
0.923828
0.927721
0.943943
0.974115
1.019535
1.064956
1.124327
1.213221
1.301791
1.380952
1.444541
1.480553
1.467575
1.419235
1.333585
1.192457
1.041272
0.891385
0.772643
0.648061
0.523804
0.431341
0.389489
0.45762
0.63411
0.878407
1.161961
1.415342
1.613245
1.706357
1.714143
1.652501
1.536355
1.402689
1.266752
1.132762
1.003314
0.90566
0.84564
0.822605
0.870621
0.97087
1.105834
1.230091
1.309253
1.339425
1.337154
1.313146
1.256046
1.196675
1.128544
1.055223
0.976386
0.921557
0.897549
0.909228
0.952053
1.03089
1.12238
1.21387
1.295626
1.361486
1.392956
1.39912
1.375761
1.295626
1.185644
1.067875
0.961462
0.878407
0.834933
0.826498
0.835907
0.876785
0.945889
1.039001
1.138602
1.235931
1.311848
1.34786
1.35078
1.30763
1.214519
1.091234
0.943294
0.763559
0.575064
0.432638
0.347313
0.337904
0.465081
0.73728
1.043219
1.261886
1.420533
1.53895
1.603188
1.613894
1.568798
1.481526
1.366353
1.232038
1.101941
0.97379
0.829094
0.669473
0.52575
0.433612
0.44886
0.608805
0.844342
1.132762
1.44227
1.66775
1.760537
1.715766
1.584046
1.431239
1.293355
1.178182
1.103563
1.061062
1.043543
1.074364
1.137304
1.211599
1.289138
1.357593
1.403338
1.420857
1.410475
1.353375
1.254748
1.135682
1.010127
0.885545
0.784322
0.743119
0.745066
0.789189
0.878732
0.988714
1.104212
1.217114
1.311199
1.369597
1.394254
1.380628
1.300493
1.186942
1.070146
0.960813
0.867377
0.808979
0.796002
0.813197
0.871594
0.960164
1.058467
1.164556
1.267076
1.351753
1.392632
1.387765
1.344291
1.232687
1.101941
0.974764
0.861861
0.772967
0.713596
0.66266
0.590312
0.555273
0.572468
0.62308
0.736306
0.954324
1.217114
1.403662
1.494503
1.493205
1.451354
1.362784
1.235607
1.092857
0.964057
0.860564
0.741497
0.671744
0.711325
0.787891
0.89398
1.092208
1.382899
1.63628
1.767675
1.77611
1.673265
1.520133
1.333585
1.137953
0.96276
0.823903
0.744093
0.689588
0.648061
0.635408
0.658767
0.733386
0.857644
1.083448
1.355646
1.587291
1.674238
1.62168
1.490934
1.332936
1.172667
1.028619
0.933885
0.88814
0.887167
0.960164
1.071769
1.196999
1.31055
1.372517
1.370895
1.322554
1.256695
1.148983
1.057818
1.009153
0.928045
0.810601
0.708081
0.667851
0.711325
0.838178
1.035432
1.215492
1.341696
1.409826
1.437728
1.444541
1.458816
1.463358
1.448109
1.379005
1.256046
1.123678
0.999096
0.853426
0.723329
0.642546
0.621782
0.663958
0.832338
1.04841
1.209652
1.291733
1.281351
1.195053
1.065604
0.917988
0.828445
0.827796
0.894953
0.978332
1.073391
1.127895
1.131788
1.129517
1.142495
1.18532
1.246962
1.321257
1.421182
1.496774
1.554847
1.537004
1.43351
1.296275
1.16488
1.05944
0.980928
0.942645
0.931614
0.951729
1.016291
1.100967
1.192457
1.279405
1.352402
1.395551
1.407231
1.387765
1.312821
1.206083
1.089937
0.978332
0.888789
0.834285
0.816765
0.825201
0.868999
0.930316
1.006882
1.078906
1.135682
1.179155
1.200244
1.202839
1.177209
1.112647
1.034135
0.958542
0.892682
0.850182
0.849857
0.885545
0.939725
1.022779
1.10778
1.172342
1.209976
1.233336
1.239824
1.241122
1.230416
1.220683
1.214519
1.160014
1.051329
0.944591
0.870945
0.844666
0.856995
0.914095
1.00526
1.107132
1.204786
1.282649
1.342993
1.38225
1.359215
1.278756
1.116216
0.939725
0.802166
0.70873
0.663958
0.692832
0.8398
1.037054
1.166827
1.254099
1.329692
1.402689
1.458816
1.509427
1.539275
1.529866
1.466926
1.355971
1.229442
1.090586
0.957569
0.851155
0.788215
0.745066
0.696401
0.698023
0.739226
0.807032
0.904037
1.017588
1.157419
1.304062
1.410475
1.448109
1.41372
1.345589
1.274863
1.191484
1.129193
1.096425
1.083124
1.098372
1.15385
1.222629
1.285245
1.331963
1.366028
1.364406
1.326772
1.281351
1.220034
1.120109
1.016291
0.958866
0.936805
0.945889
0.95984
0.971519
1.014993
1.084421
1.152228
1.203812
1.249557
1.291084
1.318661
1.336505
1.322879
1.275836
1.179804
1.060089
0.943943
0.860564
0.806384
0.774265
0.759016
0.79438
0.85959
0.960164
1.097723
1.23074
1.303413
1.31055
1.276161
1.193755
1.093181
1.049383
1.03381
0.992932
0.956271
0.930965
0.95108
1.010451
1.084097
1.158392
1.23658
1.305684
1.356295
1.366353
1.340398
1.279729
1.174289
1.046463
0.898522
0.761936
0.657469
0.619835
0.662336
0.760963
0.913122
1.101941
1.261237
1.370246
1.446163
1.498721
1.514942
1.499694
1.445838
1.348184
1.240797
1.138602
1.044841
0.958866
0.893656
0.846289
0.834285
0.878407
0.957569
1.063658
1.190511
1.331638
1.425075
1.461087
1.449407
1.383223
1.281676
1.160987
1.044841
0.939076
0.852128
0.804761
0.772967
0.760963
0.778482
0.78854
0.789189
0.781727
0.766478
0.781078
0.864132
0.996176
1.100319
1.186293
1.248584
1.278432
1.240797
1.174613
1.124651
1.104536
1.121407
1.158392
1.200568
1.228469
1.179155
1.05944
0.935832
0.840124
0.764856
0.752528
0.852453
0.993581
1.066578
1.059116
1.035757
1.002016
0.991634
1.052303
1.146712
1.255721
1.355646
1.426697
1.471144
1.481201
1.470495
1.423453
1.350131
1.251504
1.137304
1.03089
0.940698
0.881327
0.848884
0.863808
0.942969
1.050356
1.169423
1.309901
1.446487
1.517213
1.521106
1.484446
1.398471
1.28492
1.160663
1.03965
0.940049
0.875163
0.851804
0.858941
0.911499
0.9965
1.093505
1.190186
1.272267
1.334883
1.351429
1.335856
1.283298
1.184022
1.069498
0.963084
0.868999
0.801517
0.780753
0.795677
0.841098
0.928694
1.038677
1.144766
1.217438
1.229118
1.182075
1.099021
0.992932
0.869323
0.800868
0.79438
0.793406
0.766154
0.688615
0.63119
0.672069
0.793082
0.984496
1.190186
1.357268
1.489961
1.583073
1.63628
1.647959
1.618436
1.511698
1.351753
1.155472
0.929992
0.728195
0.591285
0.528346
0.556571
0.707756
0.903713
1.077608
1.205759
1.316714
1.418586
1.498396
1.559714
1.549332
1.448434
1.308279
1.164556
1.040623
0.942969
0.893331
0.886843
0.915068
0.995527
1.100967
1.217438
1.332612
1.43059
1.488014
1.499045
1.479904
1.410475
1.295626
1.163583
1.033486
0.91961
0.822605
0.764856
0.753177
0.790162
0.878407
0.994878
1.121407
1.243069
1.34786
1.409178
1.43059
1.412746
1.335532
1.232362
1.120433
1.004611
0.899495
0.831689
0.801841
0.796326
0.85148
0.945565
1.03381
1.086368
1.11654
1.139575
1.132113
1.133086
1.153201
1.104861
0.971844
0.803788
0.676286
0.654225
0.718787
0.853751
1.013046
1.146063
1.24534
1.331638
1.416315
1.48185
1.51624
1.514942
1.472442
1.352402
1.157094
0.932263
0.720085
0.545865
0.433287
0.450482
0.618538
0.844991
1.065929
1.24242
1.385818
1.502614
1.59897
1.651528
1.65315
1.611623
1.512996
1.384521
1.24242
1.095452
0.9394
0.818387
0.749932
0.723653
0.76291
0.856995
0.966977
1.09091
1.223927
1.338776
1.412746
1.456869
1.454598
1.395551
1.296924
1.186942
1.08507
0.994229
0.940049
0.925774
0.945565
1.014344
1.101941
1.195053
1.282649
1.354024
1.392307
1.395227
1.370895
1.300168
1.19635
1.078257
0.950431
0.832014
0.737928
0.692508
0.684722
0.739226
0.841098
0.970221
1.109727
1.238202
1.31347
1.312172
1.252477
1.152876
1.026997
0.926099
0.858941
0.819361
0.810277
0.787242
0.731764
0.67726
0.669798
0.730467
0.873865
1.042245
1.209328
1.349158
1.443892
1.498072
1.497423
1.375761
1.177533
0.910202
0.661363
0.516991
0.454375
0.49136
0.682451
0.943943
1.166503
1.338451
1.432212
1.477633
1.476984
1.484446
1.500343
1.454922
1.27908
1.035757
0.789513
0.525426
0.32298
0.29735
0.33466
0.467028
0.723653
1.072417
1.40788
1.645039
1.81861
1.917887
1.905558
1.825424
1.692731
1.535706
1.378681
1.237878
1.118162
1.037379
1.004611
1.003638
1.046463
1.120109
1.205434
1.293355
1.367975
1.417613
1.429292
1.410475
1.351429
1.246637
1.120433
0.998123
0.89398
0.818063
0.784971
0.785944
0.821956
0.907606
1.011424
1.121082
1.225225
1.310226
1.356944
1.36473
1.343967
1.274214
1.173965
1.063982
0.957893
0.869972
0.808006
0.7827
0.785944
0.826823
0.905335
0.995203
1.092857
1.18824
1.26805
1.31639
1.335207
1.320608
1.250855
1.15969
1.066253
0.976386
0.894629
0.843369
0.825525
0.84272
0.898847
0.975412
1.051978
1.107456
1.112647
1.079879
1.04549
1.011424
0.925125
0.84856
0.804437
0.769074
0.722356
0.732738
0.815792
0.85148
0.874839
0.926748
1.040299
1.15969
1.288489
1.398796
1.486392
1.544466
1.566851
1.494828
1.328394
1.104536
0.842395
0.623729
0.533212
0.584148
0.741173
0.941671
1.138926
1.292382
1.402364
1.491908
1.566527
1.58502
1.565554
1.507805
1.398471
1.266428
1.139899
1.021482
0.907282
0.827796
0.75999
0.690886
0.692832
0.746364
0.844018
1.005585
1.195377
1.354024
1.448109
1.497423
1.484446
1.411124
1.295951
1.174613
1.065929
0.97671
0.929019
0.914095
0.93421
1.002665
1.092857
1.189213
1.282649
1.358566
1.39912
1.406258
1.379979
1.305359
1.200892
1.087017
0.971195
0.864132
0.786593
0.75707
0.757719
0.786918
0.848884
0.921232
0.97379
0.988065
0.984496
0.958542
0.950107
0.958218
1.000069
1.121731
1.200568
1.179804
1.107456
1.018237
0.941671
0.903713
0.938752
1.030241
1.141846
1.264481
1.3537
1.388089
1.368948
1.299844
1.182075
1.023753
0.888789
0.832987
0.835258
0.872243
0.927397
0.974439
1.017913
1.085719
1.169423
1.234958
1.20219
1.067875
0.879705
0.696077
0.603938
0.669473
0.863159
1.056196
1.153201
1.155472
1.121731
1.099345
1.103238
1.160663
1.264157
1.376734
1.477633
1.557118
1.605459
1.611623
1.584371
1.522404
1.411773
1.277458
1.144766
1.021157
0.910526
0.840124
0.813197
0.823578
0.886518
0.980279
1.086692
1.193755
1.28784
1.351429
1.37641
1.363108
1.303088
1.198621
1.07112
0.950431
0.853751
0.783024
0.751555
0.749284
0.773616
0.827147
0.87711
0.922206
0.974764
1.039325
1.121731
1.211599
1.27097
1.216465
1.082475
0.946538
0.830716
0.764532
0.757394
0.789189
0.804761
0.837529
0.903064
0.977683
1.064631
1.181751
1.292707
1.32223
1.333909
1.309577
1.233336
1.190835
1.1824
1.187591
1.163258
1.116216
1.075662
1.042245
1.05652
1.111998
1.189862
1.271294
1.325474
1.3391
1.305684
1.244366
1.15385
1.073715
1.049058
1.041921
1.026673
0.977683
0.937129
0.923828
0.947511
1.015642
1.09675
1.181751
1.261237
1.328394
1.363757
1.368624
1.349158
1.281351
1.186293
1.083124
0.98547
0.901118
0.847911
0.832338
0.844666
0.893331
0.978657
1.083773
1.188564
1.278107
1.343318
1.36765
1.356944
1.306333
1.194079
1.044841
0.906308
0.804437
0.734684
0.723329
0.701268
0.626973
0.575713
0.581228
0.647736
0.809628
1.098048
1.403338
1.584695
1.652177
1.619409
1.516564
1.374463
1.219385
1.069498
0.922854
0.796002
0.707107
0.684722
0.748635
0.885545
1.082799
1.277458
1.426697
1.507156
1.525324
1.49061
1.379979
1.223278
1.045165
0.853751
0.66266
0.528021
0.507258
0.586743
0.781402
1.06236
1.335207
1.514618
1.612272
1.66191
1.66483
1.631738
1.565554
1.448434
1.311199
1.175262
1.054898
0.960489
0.904037
0.880354
0.883923
0.931939
1.01402
1.114918
1.217763
1.305035
1.363108
1.382574
1.37057
1.31347
1.215816
1.102265
0.986443
0.882301
0.79438
0.735657
0.714569
0.744093
0.825849
0.934534
1.050356
1.164556
1.259939
1.305684
1.30763
1.277783
1.199595
1.105185
0.997798
0.860239
0.721058
0.604587
0.530292
0.556247
0.710027
0.932263
1.148983
1.324825
1.43059
1.49353
1.531813
1.55647
1.520133
1.403013
1.191808
0.950756
0.728844
0.560789
0.515044
0.614969
0.824227
1.046138
1.24242
1.404635
1.524351
1.602539
1.632711
1.620383
1.56166
1.447785
1.2966
1.128869
0.958542
0.791784
0.64579
0.559816
0.543269
0.601343
0.746364
0.943943
1.14217
1.306008
1.428968
1.49645
1.512671
1.486392
1.400742
1.294653
1.181102
1.064956
0.949782
0.855048
0.803464
0.792109
0.85667
0.993256
1.145739
1.296924
1.422155
1.492232
1.506183
1.473739
1.407231
1.302115
1.179804
1.061062
0.947511
0.844342
0.775238
0.730791
0.717814
0.766803
0.861212
1.009478
1.181751
1.330341
1.440972
1.493854
1.480877
1.405284
1.279405
1.147686
1.026673
0.908255
0.805735
0.734035
0.664282
0.64579
0.716192
0.832014
0.986119
1.192457
1.362784
1.425724
1.425399
1.368299
1.249557
1.100643
0.91377
0.692508
0.503689
0.421932
0.482925
0.628919
0.850182
1.076311
1.306333
1.50456
1.646986
1.722579
1.729067
1.696949
1.630116
1.520458
1.391009
1.257992
1.13114
1.023428
0.951729
0.900793
0.869323
0.88814
0.944916
1.031215
1.145739
1.255397
1.335856
1.369921
1.356944
1.295626
1.208679
1.109078
1.008504
0.926423
0.873865
0.863483
0.881976
0.929992
1.021806
1.132437
1.241771
1.340398
1.414044
1.441945
1.432537
1.3962
1.310875
1.200568
1.086044
0.972168
0.874514
0.818063
0.802166
0.818387
0.885869
0.986767
1.101941
1.209652
1.276485
1.278107
1.218412
1.144117
1.051978
0.934858
0.860564
0.841098
0.823254
0.816116
0.838827
0.891385
0.948485
1.037054
1.132113
1.202839
1.2395
1.247935
1.235931
1.207381
1.177533
1.066578
0.917015
0.757394
0.629568
0.601343
0.689913
0.839476
1.001691
1.148983
1.267076
1.355322
1.428968
1.498072
1.550954
1.56458
1.540897
1.460438
1.318986
1.147686
0.962111
0.804761
0.747013
0.806384
0.895278
0.960489
1.040299
1.14509
1.252477
1.353051
1.436754
1.499694
1.530515
1.531813
1.481526
1.370895
1.233011
1.094803
0.975412
0.891709
0.853102
0.846937
0.872568
0.951404
1.04841
1.153201
1.262859
1.348509
1.393929
1.405609
1.391334
1.326447
1.220034
1.100967
0.986443
0.893331
0.825525
0.797299
0.80249
0.84272
0.923828
1.022779
1.124651
1.223927
1.31347
1.369921
1.385818
1.361162
1.282325
1.169423
0.998123
0.772318
0.558518
0.39468
0.299946
0.336607
0.523155
0.772643
1.009802
1.203812
1.327096
1.367975
1.345589
1.277783
1.181426
1.077608
1.031539
1.037703
1.046138
1.025375
1.009802
0.978332
0.901766
0.814819
0.745715
0.747013
0.846289
1.078257
1.391009
1.627845
1.725823
1.708304
1.613245
1.476335
1.311524
1.139575
0.978657
0.874514
0.830067
0.843693
0.902091
0.946214
0.978981
0.997474
0.983199
0.946862
0.959515
1.031539
1.104536
1.185644
1.257992
1.304711
1.304062
1.258317
1.206732
1.177209
1.19635
1.253126
1.330016
1.414693
1.486717
1.534084
1.545763
1.526946
1.464007
1.353375
1.224251
1.099021
0.989687
0.903713
0.858941
0.845964
0.866728
0.9394
1.035757
1.136979
1.236255
1.318986
1.367001
1.379654
1.361486
1.293355
1.190511
1.075662
0.963733
0.868674
0.802815
0.777185
0.781727
0.824227
0.910526
1.017264
1.122704
1.214194
1.282
1.31055
1.313795
1.289462
1.210625
1.100643
0.97963
0.850831
0.723329
0.586094
0.403115
0.22922
0.176662
0.251606
0.447238
0.835582
1.283947
1.570096
1.660937
1.603188
1.465629
1.283947
1.11362
0.975737
0.869648
0.776211
0.713596
0.702241
0.749608
0.83104
0.888789
0.997474
1.134384
1.270321
1.378357
1.512022
1.652177
1.688189
1.621031
1.500343
1.338451
1.148659
0.952378
0.803139
0.751555
0.81125
0.966004
1.164232
1.357593
1.489312
1.544466
1.546412
1.492881
1.398471
1.289138
1.170071
1.05652
0.973141
0.935183
0.929992
0.940049
0.959191
1.021806
1.109727
1.208679
1.306333
1.394578
1.455896
1.471793
1.452003
1.392956
1.286218
1.163258
1.039974
0.931614
0.850831
0.81125
0.803464
0.825849
0.896251
0.991958
1.098048
1.204786
1.297249
1.355971
1.377059
1.361811
1.289138
1.177209
1.042894
0.913446
0.806059
0.729818
0.70581
0.726898
0.80249
0.923503
1.048085
1.161312
1.252477
1.313795
1.313146
1.251828
1.137304
0.958866
0.761288
0.606209
0.509204
0.482925
0.558193
0.703214
0.892033
1.087666
1.220358
1.288813
1.337154
1.368299
1.39036
1.420533
1.43351
1.398471
1.340398
1.245664
1.109727
0.950431
0.813197
0.745715
0.747661
0.823578
0.993256
1.184995
1.330989
1.428968
1.490285
1.503912
1.483148
1.416964
1.29368
1.146712
0.997149
0.867701
0.789513
0.762585
0.768425
0.79146
0.851804
0.966328
1.112971
1.251179
1.357593
1.430266
1.449083
1.432537
1.381925
1.279405
1.149632
1.022131
0.903064
0.798273
0.729818
0.70581
0.727222
0.805735
0.927072
1.086368
1.242744
1.36473
1.434159
1.453625
1.437403
1.375761
1.257343
1.089937
0.900793
0.732738
0.586094
0.482925
0.483899
0.577659
0.709378
0.855048
1.032837
1.212896
1.338776
1.40496
1.411124
1.372841
1.275512
1.172342
1.062036
0.906957
0.740848
0.59453
0.507582
0.553976
0.710676
0.916041
1.152876
1.368299
1.520458
1.61065
1.631413
1.60481
1.531488
1.406258
1.264481
1.129193
1.009153
0.906633
0.825849
0.776211
0.758692
0.805086
0.895278
1.033486
1.23366
1.411773
1.501641
1.515591
1.488014
1.416639
1.29952
1.169423
1.048085
0.944267
0.867052
0.835258
0.834933
0.869648
0.948485
1.038677
1.133735
1.218412
1.283622
1.312497
1.311524
1.283298
1.202839
1.089288
0.960489
0.790486
0.572793
0.374241
0.248361
0.21462
0.315843
0.608805
0.992283
1.319634
1.562634
1.686567
1.72777
1.714143
1.646337
1.516564
1.360513
1.189862
1.00818
0.818063
0.642546
0.519262
0.494929
0.597125
0.793731
1.024726
1.223278
1.395227
1.511698
1.568149
1.584371
1.533435
1.422804
1.287516
1.146063
1.011749
0.900144
0.834285
0.798922
0.796975
0.844342
0.903389
0.970546
1.0536
1.130491
1.189537
1.248584
1.300168
1.288489
1.228145
1.143792
1.051978
0.974115
0.936805
0.938103
0.953351
1.001042
1.081826
1.172991
1.263183
1.345589
1.392956
1.377059
1.324825
1.243069
1.124327
1.017588
0.950756
0.889438
0.833311
0.82293
0.840124
0.875163
0.957244
1.054574
1.137628
1.219709
1.274214
1.257019
1.180778
1.093505
0.978332
0.833311
0.701592
0.629893
0.62308
0.638004
0.717165
0.89398
1.103238
1.31931
1.45914
1.538301
1.600268
1.641146
1.64212
1.608054
1.545763
1.43935
1.298871
1.135033
0.961137
0.799895
0.689264
0.64287
0.684073
0.821956
0.998771
1.174938
1.321257
1.41891
1.474064
1.488014
1.469846
1.417288
1.315741
1.195701
1.079231
0.975088
0.891709
0.84856
0.843369
0.86835
0.940698
1.03673
1.138926
1.228145
1.297573
1.333909
1.332936
1.303088
1.222629
1.101616
0.976061
0.859915
0.767452
0.714245
0.713272
0.742795
0.811574
0.906308
1.008829
1.118162
1.223603
1.297573
1.324176
1.282974
1.169098
1.003962
0.858293
0.773291
0.757719
0.835582
0.971519
1.088639
1.141197
1.188888
1.252801
1.33618
1.42475
1.49353
1.532786
1.531164
1.515916
1.427995
1.242095
1.010127
0.7827
0.604911
0.537754
0.636057
0.796975
0.927721
1.066253
1.212896
1.32223
1.390036
1.435457
1.453949
1.428968
1.365704
1.264481
1.120758
0.963733
0.832338
0.771669
0.795677
0.880678
0.976061
1.069173
1.163258
1.244366
1.320608
1.393605
1.445838
1.46206
1.453949
1.419884
1.335856
1.224576
1.110052
1.000394
0.905335
0.837529
0.802166
0.789837
0.815143
0.87419
0.954
1.056845
1.15677
1.228145
1.25929
1.276809
1.282
1.255721
1.201866
1.115567
1.014993
0.932263
0.887167
0.875163
0.885869
0.944591
1.032837
1.125624
1.224576
1.31347
1.35662
1.360837
1.333585
1.234309
1.082475
0.918961
0.750581
0.558518
0.370347
0.25777
0.258743
0.42031
0.724627
1.108754
1.458167
1.674238
1.762484
1.775137
1.741071
1.680403
1.573016
1.434808
1.288813
1.14509
1.003962
0.881976
0.804761
0.767452
0.755123
0.74539
0.773291
0.857319
0.96795
1.100967
1.272267
1.417288
1.468873
1.406582
1.313795
1.222305
1.140873
1.069498
1.018886
0.993905
0.988714
1.028619
1.100967
1.184671
1.271618
1.340074
1.351104
1.307955
1.239175
1.145739
1.056196
1.006882
0.995203
0.990012
0.966653
0.938103
0.924152
0.943943
0.996825
1.062684
1.141846
1.224251
1.295951
1.335207
1.345913
1.331963
1.26805
1.176884
1.070146
0.958866
0.866728
0.810601
0.791784
0.790811
0.82001
0.867701
0.908904
0.935183
0.940698
0.954324
0.9965
1.040299
1.090586
1.15385
1.19927
1.174613
1.111025
1.047761
1.010127
1.008504
1.032188
1.100967
1.192133
1.287516
1.371868
1.420533
1.424101
1.372841
1.223603
0.990012
0.755772
0.567602
0.458593
0.504662
0.692832
0.928045
1.123678
1.229442
1.292058
1.309577
1.303413
1.312821
1.346562
1.358242
1.363108
1.379005
1.345264
1.283298
1.196675
1.091883
1.008829
0.981901
0.979306
0.981577
1.026348
1.088963
1.146388
1.204461
1.261561
1.303413
1.311848
1.299195
1.257343
1.175262
1.092208
1.025699
0.960164
0.900793
0.881003
0.892358
0.926423
1.004287
1.099345
1.195053
1.288165
1.366353
1.411773
1.423128
1.408853
1.345913
1.246313
1.128869
1.009153
0.901766
0.823578
0.790811
0.792757
0.836231
0.930965
1.041596
1.143468
1.232038
1.294653
1.31055
1.284596
1.221007
1.1107
1.003638
0.920583
0.86251
0.824876
0.793082
0.757394
0.745715
0.795353
0.875812
0.952053
1.045814
1.171369
1.268699
1.361162
1.429292
1.423128
1.348833
1.245664
1.114269
0.96276
0.835582
0.781727
0.780429
0.810926
0.893007
0.997149
1.092857
1.189213
1.279405
1.368624
1.419235
1.435781
1.389387
1.273241
1.126922
0.975088
0.83688
0.744093
0.733386
0.772967
0.850831
0.972817
1.099994
1.206408
1.311848
1.405933
1.469846
1.506183
1.500992
1.435132
1.326447
1.185644
1.016615
0.846289
0.725924
0.678557
0.693481
0.805735
1.010451
1.185644
1.306333
1.392956
1.442594
1.444865
1.399769
1.31055
1.177209
1.034459
0.924477
0.881652
0.882301
0.919286
0.954
0.994554
1.062684
1.136655
1.219061
1.287516
1.326447
1.336829
1.29952
1.216465
1.101616
0.972492
0.838178
0.747661
0.731764
0.759016
0.81125
0.849208
0.935507
1.087017
1.252153
1.392632
1.492232
1.560363
1.577233
1.52792
1.427995
1.281351
1.123353
0.986767
0.898847
0.858293
0.841747
0.844018
0.865106
0.923828
1.011424
1.111349
1.193755
1.2395
1.255721
1.242095
1.211274
1.165854
1.09091
1.024726
0.97963
0.941671
0.913446
0.921881
0.940374
0.966328
1.03673
1.128869
1.225225
1.317363
1.387441
1.413071
1.403013
1.364082
1.281676
1.17072
1.021806
0.838827
0.665905
0.530617
0.473192
0.5118
0.655523
0.860888
1.067875
1.273241
1.439999
1.558416
1.605783
1.60481
1.565229
1.470171
1.347536
1.221007
1.098048
0.99131
0.923179
0.894953
0.898198
0.951729
1.024077
1.076311
1.104536
1.113296
1.094803
1.035432
1.010127
1.029592
1.010451
0.961786
0.942969
0.978657
1.021482
1.046463
1.066902
1.086692
1.127895
1.184022
1.246313
1.306008
1.351429
1.359215
1.318012
1.246962
1.141521
1.023104
0.923503
0.849208
0.765505
0.691535
0.67726
0.699321
0.757719
0.85667
1.024402
1.219061
1.411449
1.542519
1.581126
1.562309
1.511049
1.416964
1.304386
1.183698
1.066578
0.960164
0.886843
0.85667
0.856022
0.899171
0.967626
1.042245
1.095452
1.132113
1.169747
1.204137
1.229767
1.233984
1.216141
1.160014
1.064956
0.963084
0.881652
0.834933
0.816765
0.832338
0.888789
0.968275
1.048085
1.112647
1.162934
1.187915
1.189862
1.210301
1.204461
1.15677
1.097723
1.038677
0.989687
0.944591
0.914419
0.907931
0.955298
1.038677
1.12822
1.211274
1.289787
1.355971
1.383223
1.364082
1.312172
1.212247
1.088315
0.95692
0.814819
0.667851
0.527048
0.398249
0.33758
0.405711
0.623404
0.930641
1.247611
1.502614
1.670994
1.725174
1.709601
1.644715
1.531488
1.391009
1.250855
1.124651
1.022131
0.946214
0.879056
0.830391
0.822605
0.832987
0.876785
0.977035
1.130815
1.278432
1.400742
1.467575
1.439025
1.348509
1.226847
1.101616
0.992932
0.909228
0.866403
0.856995
0.890411
0.95984
1.035108
1.114918
1.19635
1.272592
1.313146
1.325474
1.308928
1.240149
1.146712
1.047112
0.963084
0.907931
0.887167
0.886518
0.912473
0.984496
1.076311
1.171045
1.264805
1.345264
1.397174
1.413395
1.399445
1.342669
1.241446
1.11946
0.977359
0.832338
0.709054
0.613996
0.536132
0.507258
0.548136
0.635084
0.78562
0.977683
1.206083
1.42475
1.556145
1.601241
1.543492
1.42475
1.276161
1.123029
0.994878
0.911824
0.874839
0.87127
0.908579
0.989687
1.088963
1.197324
1.294978
1.365704
1.389387
1.374788
1.322554
1.218736
1.098696
0.98839
0.890736
0.816116
0.779456
0.77686
0.799246
0.856346
0.917664
0.961462
1.007856
1.049058
1.07112
1.091883
1.161312
1.225874
1.218736
1.190835
1.163583
1.106807
1.042894
1.006233
0.997474
1.02505
1.093505
1.171694
1.257992
1.349158
1.41891
1.453949
1.465953
1.459789
1.392632
1.26805
1.1107
0.957893
0.821956
0.713596
0.666229
0.595179
0.523479
0.529968
0.601343
0.742146
0.952702
1.239175
1.49353
1.632711
1.630116
1.540248
1.417937
1.291733
1.166178
1.036081
0.926099
0.841422
0.790811
0.787242
0.828769
0.918961
1.043543
1.172667
1.305684
1.406258
1.457193
1.4533
1.384196
1.275836
1.155796
1.047761
0.963084
0.920259
0.914419
0.942969
1.01986
1.123029
1.219709
1.298546
1.351104
1.360188
1.331314
1.274538
1.184346
1.098048
1.026673
0.95692
0.897224
0.856346
0.844991
0.858293
0.915393
1.016615
1.133411
1.246962
1.341696
1.40788
1.429617
1.417288
1.369597
1.271618
1.152876
1.032837
0.922206
0.832338
0.783349
0.771345
0.795028
0.870621
0.981577
1.080204
1.134384
1.154823
1.138277
1.09383
1.047761
1.025375
1.01986
1.002016
0.953027
0.887816
0.826498
0.812548
0.830716
0.882625
1.005909
1.131788
1.224251
1.300817
1.357917
1.406258
1.460113
1.484446
1.440972
1.334558
1.190835
1.033486
0.873865
0.742146
0.665905
0.630217
0.661687
0.77102
0.917339
1.06528
1.189537
1.292707
1.361162
1.435132
1.485419
1.460113
1.393605
1.295951
1.174938
1.064956
0.995527
0.964057
0.963733
1.010127
1.073715
1.142819
1.209976
1.256046
1.28784
1.303413
1.32223
1.313795
1.267725
1.194728
1.088639
0.97671
0.893331
0.852453
0.844666
0.87127
0.941347
1.030566
1.128544
1.232362
1.32223
1.371868
1.385818
1.368624
1.300168
1.202839
1.098696
0.999745
0.909877
0.848235
0.824552
0.830716
0.875163
0.944267
0.998123
1.027646
1.060738
1.101616
1.135682
1.178831
1.260263
1.321905
1.299844
1.203488
1.076311
0.970221
0.911499
0.88522
0.883598
0.934858
1.021806
1.116865
1.196026
1.243393
1.250855
1.207057
1.133735
1.043867
0.94524
0.876461
0.84272
0.85959
0.893007
0.925125
0.960164
0.994554
1.051978
1.133411
1.227171
1.322554
1.398147
1.423777
1.381925
1.294978
1.165854
1.026997
0.912797
0.853426
0.867052
0.896251
0.93129
0.962111
1.0111
1.083124
1.178507
1.29368
1.407231
1.478282
1.475686
1.422804
1.339749
1.22198
1.09675
0.990661
0.917988
0.85959
0.821632
0.816441
0.847911
0.941023
1.067551
1.207705
1.339425
1.431563
1.476335
1.478606
1.449732
1.377383
1.268374
1.14509
1.023104
0.915393
0.837529
0.804761
0.801193
0.833636
0.911824
1.003314
1.091559
1.177533
1.257019
1.295951
1.301791
1.288489
1.226847
1.129842
1.020184
0.912148
0.819361
0.751879
0.70873
0.700943
0.738577
0.815792
0.932263
1.060738
1.1678
1.257343
1.303088
1.287191
1.237553
1.174613
1.129842
1.097074
1.050032
0.978657
0.911175
0.848884
0.80833
0.841422
0.931939
1.067551
1.21679
1.34202
1.435781
1.464655
1.445514
1.386467
1.267401
1.120433
0.97671
0.840124
0.720085
0.660714
0.651954
0.684722
0.770047
0.904362
1.038677
1.167476
1.264805
1.314443
1.33618
1.347536
1.304386
1.246637
1.183373
1.082799
0.972168
0.897873
0.85959
0.835582
0.885869
1.017588
1.157094
1.309577
1.448434
1.538301
1.575611
1.568149
1.512996
1.402364
1.273241
1.143144
1.021482
0.919286
0.850831
0.818387
0.816441
0.869323
0.95692
1.05944
1.168449
1.262534
1.317039
1.338451
1.337478
1.288165
1.201541
1.121731
1.048734
0.975088
0.90274
0.855373
0.829743
0.83396
0.876136
0.936805
1.000718
1.059765
1.108429
1.1107
1.063658
0.999096
0.940374
0.856346
0.800219
0.826823
0.889438
0.949782
1.00818
1.064307
1.134059
1.216141
1.31639
1.417937
1.496774
1.537977
1.532786
1.500992
1.41891
1.266752
1.074364
0.86835
0.683424
0.515693
0.430367
0.467353
0.629568
0.877758
1.106807
1.31055
1.463682
1.560687
1.594428
1.577233
1.534733
1.452003
1.32807
1.182724
1.044841
0.933236
0.853751
0.815143
0.81709
0.85959
0.947836
1.058791
1.166503
1.257992
1.331314
1.372841
1.382574
1.356944
1.266428
1.143144
1.022455
0.922206
0.846613
0.815792
0.835258
0.87127
0.932263
1.016291
1.114594
1.223927
1.32515
1.401067
1.436754
1.434808
1.389063
1.294653
1.180778
1.075662
0.981252
0.90274
0.858941
0.829418
0.792109
0.769723
0.769398
0.801841
0.857644
0.934858
1.052303
1.170396
1.187266
1.110376
1.026348
0.960164
0.943294
0.996825
1.033486
1.029268
1.004611
1.020833
1.09967
1.19927
1.286218
1.346238
1.372192
1.353051
1.295626
1.212896
1.11654
1.039001
0.953027
0.850182
0.746688
0.681477
0.675638
0.738902
0.91377
1.156121
1.360513
1.49061
1.564256
1.60189
1.597997
1.554847
1.465629
1.338127
1.20511
1.073391
0.959191
0.881327
0.852453
0.852128
0.873865
0.951729
1.052627
1.162934
1.272267
1.368948
1.427346
1.442594
1.433185
1.367975
1.258966
1.132762
1.00526
0.895278
0.822605
0.799246
0.809628
0.861861
0.956271
1.064307
1.169747
1.260263
1.320608
1.318012
1.274538
1.206732
1.098372
0.988714
0.936481
0.920583
0.886194
0.845315
0.809628
0.762585
0.739551
0.746364
0.771345
0.832014
0.95108
1.124327
1.232038
1.274538
1.236904
1.136655
1.033161
0.918637
0.850831
0.852453
0.892033
0.957244
1.043867
1.15969
1.28492
1.392632
1.469522
1.517538
1.528244
1.492232
1.422479
1.321581
1.201541
1.087341
0.984496
0.929019
0.906957
0.884572
0.875163
0.911499
0.971519
1.012722
1.026673
1.022131
1.015966
1.026348
1.058142
1.111998
1.142495
1.165529
1.203488
1.208354
1.164232
1.103563
1.063333
1.037703
1.052303
1.096101
1.144117
1.195701
1.246313
1.285893
1.303737
1.318012
1.31347
1.253126
1.1678
1.082475
1.009153
0.956595
0.941996
0.955946
0.975737
1.034783
1.111025
1.191159
1.267725
1.324501
1.338451
1.315092
1.276809
1.201217
1.105185
1.009153
0.940049
0.892682
0.856995
0.844018
0.844018
0.863483
0.917339
0.993905
1.083448
1.177858
1.25345
1.283947
1.282649
1.263832
1.204786
1.129193
1.052952
0.985145
0.905335
0.827147
0.768425
0.735982
0.766478
0.90274
1.099345
1.260588
1.354673
1.420533
1.45038
1.425075
1.369921
