0.905335
0.827147
0.787242
0.787566
0.835907
0.908579
0.977359
1.03381
1.083448
1.129842
1.173965
1.211923
1.242744
1.229442
1.146388
1.008504
0.844991
0.700619
0.626324
0.653252
0.726573
0.817739
0.933561
1.046138
1.11946
1.186293
1.236904
1.309577
1.406258
1.409502
1.337478
1.196026
0.998447
0.813197
0.674015
0.593556
0.577659
0.644817
0.736306
0.81417
0.904362
1.088963
1.370246
1.607405
1.669696
1.60189
1.473091
1.321581
1.165854
1.025699
0.899495
0.816441
0.777834
0.767776
0.821307
0.903713
1.021157
1.158067
1.270321
1.35662
1.396849
1.401067
1.352078
1.243717
1.117189
0.995852
0.880678
0.781402
0.719111
0.681477
0.691859
0.783349
0.899171
1.023428
1.136655
1.195053
1.215492
1.194728
1.137304
1.083448
1.022455
0.927721
0.844991
0.79957
0.796002
0.825201
0.862186
0.914744
0.993581
1.072417
1.127895
1.176884
1.246637
1.302764
1.326123
1.321905
1.27908
1.176884
1.059765
0.958218
0.841747
0.74831
0.701917
0.684397
0.781078
0.950107
1.101292
1.260588
1.333261
1.281027
1.173316
1.0536
0.942969
0.957893
1.075662
1.132113
1.1107
1.036406
0.958218
0.917988
0.936481
1.01986
1.110376
1.180778
1.220683
1.212247
1.146063
1.057169
1.010775
1.011749
0.986119
0.964706
1.005585
0.98255
0.926748
0.902415
0.889438
0.908904
0.956595
1.037379
1.149308
1.260912
1.315417
1.301791
1.238202
1.136979
1.018562
0.927072
0.881976
0.916366
0.920908
0.887491
0.870297
0.878407
0.933236
1.018562
1.120758
1.225549
1.297573
1.334558
1.333909
1.304386
1.267725
1.232687
1.166827
1.084746
1.002665
0.912148
0.837529
0.793406
0.793082
0.84856
0.929668
1.010451
1.083124
1.125949
1.121082
1.079879
1.041921
1.007856
0.937129
0.8398
0.715543
0.562087
0.437829
0.454375
0.51991
0.63119
0.796975
1.075337
1.346238
1.503263
1.570096
1.57334
1.548683
1.49353
1.415991
1.304062
1.165529
1.027646
0.907606
0.83688
0.831365
0.876461
0.94816
1.028295
1.096101
1.15385
1.165854
1.12822
1.055223
0.966328
0.927721
0.963084
1.030241
1.076635
1.079231
1.041921
1.001367
0.968275
0.966328
1.022131
1.106807
1.193755
1.277134
1.341371
1.371219
1.366677
1.332936
1.252477
1.138602
1.010775
0.886843
0.792433
0.726898
0.715218
0.754799
0.820659
0.909877
1.005585
1.107456
1.206408
1.274863
1.300817
1.290436
1.236255
1.100319
0.923179
0.723329
0.533212
0.413497
0.413497
0.498174
0.613022
0.79957
0.996825
1.179155
1.316066
1.420208
1.491908
1.492557
1.43643
1.320283
1.187591
1.069173
0.971195
0.848884
0.692508
0.523804
0.437505
0.479032
0.612698
0.872243
1.230091
1.53895
1.691758
1.71025
1.656395
1.548683
1.358566
1.138277
0.92545
0.736631
0.603289
0.613022
0.6831
0.735009
0.829418
0.997798
1.148983
1.298222
1.424426
1.49353
1.501641
1.473739
1.414693
1.302764
1.15969
0.995203
0.844018
0.739551
0.686019
0.710352
0.786918
0.898198
1.007531
1.089288
1.167151
1.242095
1.298871
1.328394
1.325799
1.273565
1.181102
1.085395
0.990661
0.898198
0.825201
0.797624
0.806059
0.841747
0.915068
1.001042
1.087666
1.166827
1.226198
1.245664
1.234633
1.171694
1.024726
0.849208
0.695103
0.566304
0.516666
0.619186
0.784971
0.921881
1.034459
1.134384
1.214194
1.269023
1.291409
1.285569
1.231713
1.114269
0.968275
0.85148
0.741497
0.632164
0.701592
0.818387
0.910202
1.026673
1.119136
1.213221
1.286542
1.364406
1.435132
1.46498
1.45038
1.40204
1.331314
1.240797
1.151254
1.114918
1.064631
0.954973
0.834285
0.761288
0.735009
0.75999
0.838502
0.920908
0.99942
1.078906
1.149308
1.19635
1.267725
1.363757
1.368948
1.302115
1.194079
1.066578
0.945889
0.844991
0.781402
0.753501
0.777509
0.843044
0.924801
1.029592
1.130815
1.214194
1.274214
1.308928
1.304386
1.248259
1.158067
1.052303
0.942645
0.8398
0.760314
0.690237
0.647088
0.635408
0.593881
0.582201
0.716516
0.88522
1.048734
1.281676
1.539599
1.623303
1.536355
1.362459
1.199595
1.057494
0.923828
0.828769
0.7827
0.791135
0.83688
0.892682
0.949458
1.064956
1.20511
1.292058
1.393929
1.443567
1.403338
1.294978
1.158392
1.012722
0.870297
0.755448
0.68018
0.648061
0.686668
0.805735
0.984821
1.168125
1.30763
1.388089
1.428643
1.425075
1.364082
1.232687
1.072742
0.929019
0.836556
0.795677
0.792757
0.815792
0.839151
0.890411
0.968599
1.061387
1.150605
1.225549
1.279729
1.30763
1.31055
1.273565
1.211599
1.112647
0.99942
0.904037
0.829743
0.796975
0.793406
0.821307
0.890736
0.978008
1.073391
1.160663
1.221332
1.23658
1.202515
1.117513
0.984496
0.832014
0.691535
0.622431
0.640599
0.74539
0.878407
0.963733
0.991634
0.988065
0.98255
0.991634
0.947836
0.870297
0.840449
0.861212
0.854075
0.879381
1.032188
1.170071
1.223927
1.214519
1.191159
1.15677
1.144117
1.193106
1.262859
1.321257
1.370246
1.404311
1.408204
1.391334
1.37057
1.309901
1.219385
1.101616
0.963084
0.833636
0.737928
0.685046
0.673691
0.734035
0.858293
0.978332
1.099994
1.221007
1.344616
1.406907
1.396525
1.346887
1.247935
1.122704
0.997798
0.889114
0.81417
0.763234
0.739875
0.740848
0.767776
0.796651
0.832662
0.900469
1.001367
1.12238
1.281027
1.381276
1.370895
1.261237
1.106158
0.952053
0.824227
0.735657
0.721058
0.743768
0.769723
0.800544
0.815792
0.837853
0.885545
0.949133
1.052303
1.153525
1.214194
1.207057
1.184022
1.196999
1.209003
1.146063
1.006558
0.875487
0.796975
0.778807
0.79438
0.892033
1.043219
1.158067
1.244042
1.337803
1.40788
1.374463
1.283622
1.193755
1.118487
1.064631
1.011749
0.918637
0.809303
0.766478
0.776211
0.812548
0.881976
0.985794
1.084746
1.166827
1.227171
1.294004
1.411449
1.460762
1.386792
1.266103
1.132762
1.009153
0.918637
0.867701
0.872243
0.926423
1.013046
1.115242
1.211599
1.2966
1.346238
1.354673
1.341696
1.280703
1.184346
1.072742
0.959515
0.861537
0.794704
0.766154
0.773291
0.816765
0.896251
0.990985
1.091234
1.184346
1.260588
1.309577
1.320932
1.283947
1.184671
1.057818
0.92253
0.789513
0.669798
0.54846
0.451455
0.403439
0.432638
0.520235
0.739875
0.990012
1.159041
1.277134
1.389712
1.450705
1.448434
1.375112
1.283298
1.175262
1.062036
0.955622
0.863808
0.756745
0.679531
0.699321
0.77394
0.85667
1.037379
1.264481
1.404311
1.483797
1.49353
1.429292
1.30763
1.164556
1.043867
0.97671
0.966977
0.95984
0.944267
0.967302
1.039974
1.128869
1.20511
1.247286
1.25345
1.22782
1.186617
1.153201
1.129517
1.101616
1.054898
0.974115
0.875163
0.797948
0.768101
0.773616
0.831689
0.927721
1.051654
1.187915
1.304711
1.375437
1.391983
1.379979
1.321581
1.210625
1.07404
0.919935
0.756745
0.613996
0.516991
0.477734
0.495254
0.622106
0.841747
1.051978
1.271943
1.444865
1.518835
1.526622
1.47893
1.376086
1.243069
1.123678
1.004287
0.886518
0.817414
0.80249
0.821307
0.840449
0.860564
0.925125
1.021806
1.085719
1.146712
1.207381
1.253775
1.276485
1.272267
1.270321
1.187591
1.053925
0.922854
0.841422
0.796975
0.772318
0.794055
0.858617
0.944591
1.05652
1.190511
1.303737
1.389712
1.42767
1.355646
1.188888
0.995203
0.824227
0.705485
0.678882
0.702241
0.69413
0.696726
0.75415
0.833311
0.981252
1.220683
1.449083
1.549981
1.552576
1.501641
1.414693
1.301466
1.177858
1.0536
0.940049
0.847262
0.791784
0.763883
0.784647
0.857319
0.944267
1.028944
1.121731
1.176884
1.174938
1.155472
1.123678
1.053276
1.023428
1.063982
1.061062
1.002665
0.938427
0.918312
0.940374
0.999096
1.067227
1.13925
1.213545
1.254424
1.258317
1.241122
1.190186
1.075662
0.933561
0.809952
0.752852
0.76291
0.819361
0.900144
0.995527
1.072742
1.165205
1.252477
1.326772
1.375112
1.391658
1.376086
1.336829
1.285245
1.209328
1.115242
1.010127
0.866728
0.739226
0.653901
0.63995
0.713921
0.846613
0.986443
1.106158
1.204461
1.288813
1.350131
1.365704
1.339749
1.290111
1.205759
1.101616
0.99942
0.923503
0.847262
0.796002
0.787566
0.793082
0.82812
0.883598
0.945565
1.000069
1.05944
1.13114
1.189862
1.220683
1.239824
1.252477
1.225549
1.152876
1.08215
0.988714
0.890736
0.803464
0.745066
0.747337
0.816441
0.946862
1.12238
1.275187
1.388089
1.455896
1.471468
1.404635
1.292382
1.164232
1.015642
0.855697
0.727547
0.66266
0.657145
0.749932
0.916366
1.060089
1.159041
1.214519
1.278432
1.330989
1.325474
1.269672
1.126273
0.983199
0.912473
0.907931
0.949133
0.955298
0.923828
0.888465
0.88814
0.931614
0.999745
1.106807
1.277458
1.422479
1.478606
1.467575
1.400418
1.301142
1.165205
1.00526
0.859266
0.752852
0.702241
0.693481
0.699321
0.760314
0.863808
0.966653
1.106158
1.292058
1.446163
1.539275
1.524026
1.404311
1.249882
1.078906
0.908579
0.77686
0.701592
0.703214
0.76583
0.876136
1.002016
1.111998
1.224251
1.329043
1.40204
1.435132
1.434808
1.393929
1.310226
1.189213
1.04257
0.882301
0.721058
0.587717
0.48617
0.441722
0.516342
0.693806
0.91669
1.172342
1.354997
1.446487
1.478282
1.500018
1.467575
1.367326
1.233984
1.092857
0.969248
0.874514
0.832014
0.827796
0.858617
0.92837
1.007207
1.078257
1.113296
1.089612
1.013371
0.930965
0.843369
0.792433
0.844018
1.018562
1.136979
1.152228
1.114918
1.07112
1.05652
1.086692
1.151903
1.233336
1.301466
1.334883
1.319634
1.237229
1.109078
0.971195
0.842395
0.769723
0.805086
0.97671
1.079879
1.12822
1.123029
1.114918
1.146388
1.20511
1.276161
1.348184
1.406582
1.43059
1.414693
1.363433
1.26221
1.133411
1.00234
0.886194
0.813197
0.780105
0.766478
0.772967
0.816116
0.904037
1.015966
1.125624
1.232362
1.324825
1.368299
1.366028
1.323203
1.23658
1.126598
1.004611
0.886518
0.792757
0.742146
0.746039
0.756097
0.783349
0.828769
0.878407
0.910202
0.939076
0.989687
1.057818
1.104536
1.102265
1.074688
1.033161
1.009478
1.028944
1.075337
1.087341
1.073715
1.066253
1.097074
1.158067
1.222629
1.285245
1.330665
1.314443
1.21679
1.061387
0.868999
0.70289
0.587392
0.593556
0.760639
0.911175
0.976061
1.008504
1.067875
1.160987
1.26805
1.364406
1.437403
1.49353
1.512996
1.498721
1.438052
1.311199
1.163907
1.020833
0.891385
0.794704
0.759665
0.776211
0.837205
0.933561
1.03673
1.149957
1.271618
1.358891
1.410151
1.42767
1.413071
1.354673
1.254424
1.129517
0.998123
0.873865
0.766478
0.715867
0.719436
0.770372
0.879056
0.991634
1.115567
1.241122
1.331638
1.376086
1.380952
1.358566
1.284596
1.176236
1.032188
0.860888
0.697374
0.573442
0.514395
0.504987
0.598747
0.756745
0.880029
0.970546
1.103238
1.293355
1.416639
1.491908
1.503587
1.414368
1.285245
1.144766
0.996176
0.869972
0.775238
0.720085
0.714894
0.778807
0.884896
0.976061
1.049058
1.095128
1.09967
1.096425
1.141521
1.194404
1.231065
1.249882
1.192782
1.059765
0.920583
0.829418
0.786918
0.815143
0.936481
1.077284
1.221656
1.339749
1.426697
1.472117
1.473739
1.416315
1.263508
1.057494
0.819361
0.603289
0.487467
0.517639
0.663958
0.841422
1.017588
1.171045
1.284596
1.376734
1.454598
1.505534
1.513969
1.495152
1.445189
1.341047
1.212896
1.074688
0.929668
0.798273
0.700294
0.63703
0.610427
0.651954
0.775238
0.939076
1.090261
1.227171
1.311848
1.339749
1.325474
1.279405
1.209652
1.118487
1.03089
0.966977
0.915393
0.883598
0.866079
0.876785
0.936805
1.018237
1.104861
1.187915
1.254748
1.299844
1.29952
1.261561
1.171045
1.037054
0.870945
0.681802
0.518288
0.445616
0.505635
0.624377
0.817739
1.029917
1.147686
1.208354
1.258966
1.30763
1.400418
1.510725
1.531488
1.454922
1.31055
1.143468
0.972817
0.80541
0.679531
0.607507
0.590961
0.67434
0.855048
1.04841
1.2395
1.386792
1.434483
1.410475
1.34494
1.234633
1.121082
0.98255
0.847262
0.763559
0.730142
0.737928
0.775563
0.847262
0.973466
1.120433
1.230416
1.308279
1.372841
1.432212
1.475037
1.468873
1.378032
1.249882
1.111025
0.963084
0.805735
0.667527
0.586743
0.548136
0.582201
0.721382
0.92253
1.123353
1.282
1.398796
1.440323
1.425399
1.380303
1.288489
1.180453
1.077933
0.982225
0.901766
0.856346
0.8398
0.837529
0.884572
0.958866
1.037703
1.115891
1.173316
1.189862
1.166503
1.186617
1.176884
1.11946
1.07112
1.045814
0.982874
0.882625
0.780429
0.682126
0.622431
0.633461
0.712298
0.836556
0.997474
1.126922
1.20219
1.226198
1.194728
1.127895
1.081826
1.072417
1.064956
1.074364
1.094154
1.08507
1.067227
1.084421
1.138602
1.19343
1.226522
1.235931
1.2249
1.200568
1.213221
1.242095
1.236904
1.162285
1.027646
0.852453
0.693481
0.608156
0.596476
0.753177
0.987416
1.167476
1.294653
1.381925
1.454274
1.498396
1.482175
1.42475
1.337803
1.225549
1.09967
0.975412
0.869972
0.784647
0.73728
0.738253
0.791784
0.895278
1.008829
1.124651
1.234958
1.321257
1.364406
1.35662
1.306982
1.184346
1.025375
0.865754
0.717165
0.626648
0.643194
0.728195
0.834609
0.958218
1.070795
1.152876
1.238526
1.298546
1.332612
1.334883
1.307955
1.231389
1.091559
0.95108
0.867377
0.801841
0.725276
0.685371
0.663958
0.655523
0.704836
0.850182
1.127246
1.394578
1.548683
1.59897
1.59605
1.55647
1.464007
1.337154
1.193106
1.026024
0.834285
0.660714
0.558842
0.515693
0.598098
0.826174
1.070795
1.26805
1.406907
1.472442
1.476335
1.459789
1.418262
1.321905
1.190835
1.049383
0.921557
0.814819
0.747013
0.711974
0.691859
0.713272
0.780429
0.868999
0.97087
1.091883
1.20511
1.282974
1.326123
1.292707
1.215167
1.132437
1.019211
0.875812
0.766478
0.73144
0.746364
0.808006
0.935183
1.040623
1.083124
1.114594
1.144441
1.190835
1.244042
1.288489
1.305359
1.27389
1.218087
1.131788
1.022131
0.932263
0.920908
0.927397
0.928045
0.958866
1.002989
1.051005
1.115891
1.190511
1.263183
1.365704
1.442594
1.423453
1.326772
1.203163
1.072093
0.957893
0.873865
0.818063
0.78854
0.806059
0.857968
0.941023
1.043543
1.131464
1.201217
1.246962
1.277134
1.313795
1.307306
1.223278
1.089612
0.954973
0.837205
0.758692
0.705161
0.686993
0.732413
0.803139
0.885869
0.997149
1.141197
1.242744
1.295951
1.306333
1.255397
1.166827
1.112323
1.072417
1.015966
0.94816
0.86543
0.776211
0.746364
0.78854
0.887167
1.081826
1.309253
1.464007
1.536679
1.532462
1.470171
1.3391
1.173316
1.002016
0.847262
0.74831
0.738577
0.797299
0.882625
0.98255
1.068849
1.143468
1.22198
1.289462
1.322554
1.305359
1.251504
1.157743
1.011424
0.834933
0.660714
0.518288
0.399871
0.344069
0.42907
0.64287
0.957893
1.279729
1.488988
1.597024
1.649581
1.657692
1.63628
1.587615
1.482499
1.343967
1.188564
1.028295
0.885545
0.772643
0.698023
0.659092
0.681153
0.781402
0.938103
1.08507
1.183698
1.235607
1.232038
1.201866
1.203488
1.23366
1.226198
1.151579
1.024726
0.905335
0.831365
0.786593
0.766478
0.814494
0.914419
1.025699
1.148983
1.258317
1.344616
1.380303
1.362784
1.301466
1.205434
1.089612
1.004287
0.954
0.906308
0.888465
0.887491
0.904362
0.960489
1.039001
1.1253
1.21679
1.296275
1.335532
1.326447
1.269347
1.138277
0.975088
0.820659
0.706134
0.667527
0.708405
0.764532
0.796326
0.829743
0.890736
0.984172
1.111998
1.222629
1.238202
1.169747
1.099994
1.029917
0.952702
0.953675
0.976386
1.020184
1.032837
1.02797
1.028295
1.019211
1.013371
0.986443
0.993256
1.000069
1.014344
1.083773
1.190186
1.327096
1.464655
1.500018
1.427346
1.302764
1.165854
1.051005
0.973141
0.930641
0.923179
0.953027
1.001042
1.063333
1.146063
1.227496
1.275512
1.289787
1.280378
1.228794
1.147686
1.054898
0.964706
0.883598
0.823254
0.789189
0.800219
0.858617
0.940698
1.041596
1.148334
1.246637
1.330665
1.384196
1.401067
1.375437
1.287516
1.165854
1.038028
0.92253
0.833636
0.778158
0.755448
0.751879
0.791135
0.844991
0.897549
0.957569
1.014344
1.061062
1.102914
1.134384
1.141521
1.090261
0.963084
0.82001
0.733386
0.742795
0.867052
1.028619
1.127571
1.210301
1.280054
1.349807
1.41891
1.469846
1.482824
1.437403
1.294004
1.047761
0.784647
0.558518
0.401493
0.426474
0.654225
0.950431
1.10259
1.171694
1.230416
1.292058
1.361811
1.43643
1.495152
1.506507
1.464007
1.354997
1.163258
0.940698
0.700619
0.483899
0.378783
0.3976
0.510177
0.706459
0.981577
1.224251
1.354997
1.415991
1.460762
1.498721
1.516564
1.511374
1.448434
1.311848
1.13633
0.962111
0.837205
0.815468
0.837529
0.863159
0.926099
1.020833
1.112971
1.214519
1.306333
1.371543
1.389712
1.374139
1.326772
1.237878
1.134708
1.028619
0.929019
0.845315
0.791135
0.77686
0.792433
0.850506
0.950107
1.064956
1.174289
1.264805
1.328394
1.353375
1.359215
1.343318
1.263832
1.148659
1.023753
0.897873
0.796002
0.746688
0.742146
0.766154
0.83688
0.934534
1.038677
1.142495
1.223603
1.270645
1.271943
1.226522
1.134384
1.01402
0.901442
0.829418
0.784971
0.787242
0.806059
0.83104
0.892033
1.025699
1.151903
1.265779
1.378032
1.46498
1.514618
1.50748
1.465304
1.368624
1.241122
1.103563
0.973466
0.852453
0.758043
0.703539
0.655847
0.630217
0.653576
0.726898
0.849533
1.050681
1.297897
1.498396
1.600268
1.57042
1.448434
1.291084
1.143144
1.017264
0.904362
0.814494
0.762585
0.752203
0.791784
0.865106
0.943943
1.071769
1.229767
1.374463
1.446812
1.437728
1.366353
1.264481
1.151579
1.035432
0.940374
0.881976
0.878732
0.89982
0.947511
1.031539
1.114918
1.183373
1.23366
1.267076
1.282325
1.248908
1.193106
1.100643
0.969897
0.867052
0.783998
0.722031
0.738253
0.856995
0.966004
1.048085
1.104212
1.140873
1.180778
1.232038
1.280703
1.306657
1.294978
1.184671
0.985145
0.768101
0.579606
0.432638
0.441074
0.723978
0.997149
1.173316
1.312821
1.411124
1.475037
1.517538
1.546737
1.563283
1.54771
1.503587
1.414693
1.286218
1.130166
0.974439
0.831689
0.701917
0.617889
0.598747
0.66558
0.793082
0.955298
1.141846
1.300817
1.403987
1.4533
1.458491
1.432212
1.308604
1.118162
0.886194
0.665905
0.543269
0.516017
0.547487
0.665256
0.896251
1.129842
1.277134
1.365379
1.440323
1.481201
1.481526
1.457518
1.400418
1.301142
1.172667
1.025699
0.866079
0.71976
0.630866
0.586743
0.58577
0.710352
0.884572
1.0536
1.197324
1.314443
1.405933
1.449083
1.452976
1.403013
1.310875
1.200244
1.084421
0.970221
0.889114
0.860564
0.850506
0.869648
0.933236
1.014993
1.097399
1.177209
1.247611
1.283298
1.285893
1.276809
1.237229
1.157419
1.06236
0.965355
0.871594
0.806708
0.78854
0.810277
0.871594
0.955622
1.022779
1.077608
1.128544
1.154823
1.13633
1.135033
1.154174
1.132113
1.060413
0.974764
0.844018
0.697374
0.549109
0.435883
0.422905
0.534834
0.766154
1.097723
1.409826
1.633035
1.732636
1.750155
1.706033
1.572367
1.369921
1.140873
0.928045
0.714569
0.543269
0.456322
0.468326
0.539701
0.692508
0.906633
1.140224
1.405284
1.558416
1.593779
1.571393
1.523702
1.421506
1.297573
1.197648
1.094154
0.974439
0.872568
0.793731
0.729493
0.71976
0.791135
0.85667
0.904037
0.948809
1.012398
1.080528
1.201541
1.366353
1.487366
1.476984
1.366353
1.217438
1.082799
0.997798
0.956271
0.952378
1.003962
1.083773
1.169747
1.254748
1.330665
1.377708
1.388738
1.355971
1.270321
1.164232
1.052952
0.94232
0.871919
0.83688
0.824876
0.826823
0.865106
0.940049
1.02797
1.109078
1.183049
1.249882
1.271943
1.251179
1.206408
1.108429
0.944916
0.755448
0.603938
0.489738
0.427447
0.482925
0.650332
0.850506
1.052952
1.225874
1.349807
1.43643
1.472117
1.463358
1.417288
1.312497
1.203163
1.117513
1.038677
0.967626
0.902091
0.861212
0.83396
0.815468
0.845964
0.914095
1.032837
1.175911
1.267401
1.303413
1.279405
1.214843
1.123353
1.027646
0.930965
0.843044
0.816441
0.841747
0.917988
1.000718
1.087341
1.17948
1.26513
1.345264
1.414368
1.462709
1.455896
1.396525
1.30244
1.134708
0.943943
0.807032
0.731115
0.680504
0.697699
0.844666
0.942969
0.9965
1.047436
1.109727
1.187915
1.264157
1.299844
1.294004
1.285569
1.263508
1.226198
1.189213
1.106483
0.974115
0.84564
0.759665
0.720409
0.784647
0.940049
1.075337
1.16488
1.198297
1.1824
1.138602
1.082799
1.047761
1.051978
1.136979
1.207705
1.206732
1.130491
1.032837
0.974764
0.95984
0.977683
1.02505
1.081826
1.135033
1.179804
1.211923
1.225225
1.221332
1.214194
1.174613
1.096101
0.987416
0.878083
0.810926
0.822281
0.867052
0.915068
0.992283
1.069498
1.151254
1.229442
1.289462
1.31931
1.278756
1.180129
1.066253
0.935507
0.800219
0.692184
0.640599
0.58869
0.547163
0.53743
0.646114
0.907282
1.176884
1.374463
1.47601
1.526622
1.542519
1.518187
1.434159
1.271294
1.086692
0.920908
0.807681
0.767452
0.856995
0.97379
1.026997
1.046138
1.067875
1.113296
1.206408
1.318986
1.399769
1.412746
1.35078
1.220683
1.057169
0.908579
0.787566
0.766478
0.897549
0.994878
1.008829
1.006558
1.037703
1.098048
1.173965
1.256695
1.328718
1.373814
1.381276
1.360837
1.301142
1.203163
1.081177
0.95984
0.855373
0.766478
0.713921
0.703214
0.73436
0.818387
0.935183
1.062036
1.174289
1.281351
1.35662
1.378681
1.367001
1.297897
1.191808
1.058791
0.910202
0.786593
0.686344
0.601667
0.561113
0.593556
0.680504
0.811899
1.003314
1.182724
1.264481
1.276485
1.245015
1.219709
1.174938
1.141521
1.135682
1.089937
1.00818
0.946214
0.919935
0.91377
0.947187
1.023753
1.138926
1.251504
1.32515
1.342669
1.333909
1.308604
1.229442
1.160014
1.174289
1.183698
1.125624
1.03673
0.97087
0.941671
0.959191
1.026024
1.110376
1.196999
1.254424
1.282
1.269996
1.235282
1.184995
1.134059
1.094479
1.038028
0.949133
0.856346
0.795028
0.767127
0.77394
0.863808
1.002665
1.126922
1.222305
1.297897
1.351104
1.354673
1.311848
1.220683
1.097723
0.966977
0.858941
0.805735
0.815792
0.882301
0.932263
0.943943
0.993256
1.068849
1.155796
1.235931
1.292382
1.294978
1.253775
1.185969
1.064307
0.914419
0.834933
0.799895
0.709703
0.629893
0.695103
0.841747
0.978657
1.109403
1.234958
1.356295
1.451678
1.500667
1.495152
1.445189
1.343642
1.168774
0.966977
0.778482
0.652927
0.604911
0.644492
0.760639
0.867377
0.971844
1.092208
1.230091
1.346887
1.429617
1.473091
1.474388
1.45038
1.387116
1.270645
1.131788
1.016291
0.940374
0.870621
0.844991
0.851155
0.878407
0.936481
1.036081
1.139575
1.237878
1.312172
1.37349
1.39912
1.390036
1.328718
1.23366
1.12822
1.013695
0.904362
0.816765
0.773291
0.768749
0.819361
0.918961
1.026673
1.130491
1.224576
1.300493
1.343967
1.356944
1.332936
1.259615
1.156445
1.032512
0.868674
0.674989
0.504013
0.401817
0.366454
0.45178
0.662985
0.961786
1.238851
1.417288
1.490934
1.506183
1.469197
1.395227
1.302764
1.213221
1.124327
1.04257
0.964057
0.887167
0.826823
0.772967
0.746364
0.752528
0.80833
0.889114
1.02797
1.215816
1.394903
1.502938
1.483472
1.39328
1.264481
1.134708
1.010127
0.903064
0.822605
0.763559
0.745066
0.79957
0.901442
1.030566
1.183698
1.317363
1.404635
1.462709
1.453949
1.375112
1.260588
1.132437
1.011749
0.908904
0.845315
0.826823
0.845315
0.898522
0.950756
0.987092
1.023428
1.052952
1.077284
1.11946
1.217438
1.287516
1.267076
1.181102
1.090586
1.012722
0.930965
0.87419
0.846613
0.852128
0.912473
0.998447
1.084421
1.161636
1.220358
1.245988
1.219385
1.13925
1.033161
0.926748
0.817414
0.770696
0.797948
0.774265
0.734684
0.740848
0.789189
0.872568
0.996176
1.136655
1.259615
1.382574
1.479904
1.512347
1.469522
1.359539
1.211599
1.031215
0.831689
0.655198
0.516666
0.473841
0.553651
0.718463
0.892682
1.098048
1.337803
1.485743
1.546737
1.559714
1.533435
1.467575
1.370246
1.260912
1.143792
1.031863
0.932587
0.876136
0.853102
0.854075
0.895602
0.968275
1.052952
1.138277
1.211274
1.267725
1.28784
1.26513
1.190511
1.090586
0.999745
0.918637
0.839151
0.775563
0.745066
0.750257
0.803139
0.902415
1.019535
1.137304
1.242744
1.331314
1.376734
1.368948
1.325799
1.225225
1.095128
0.964706
0.869648
0.797299
0.721382
0.64871
0.599721
0.602965
0.64579
0.752528
0.886194
0.998447
1.121082
1.264157
1.36473
1.388414
1.352078
1.271943
1.165854
1.067551
0.989039
0.943294
0.940049
0.960813
1.01402
1.090586
1.175262
1.244042
1.285245
1.287516
1.250206
1.189213
1.072742
0.935183
0.814819
0.730791
0.693481
0.701592
0.786918
0.920908
1.045814
1.144766
1.230416
1.297249
1.348509
1.388089
1.37933
1.335532
1.272592
1.176236
1.071769
0.983199
0.910202
0.83104
0.775887
0.780429
0.806059
0.851804
0.925774
1.016291
1.107132
1.196675
1.280054
1.338451
1.350455
1.312821
1.216465
1.087666
0.956595
0.841098
0.75123
0.713272
0.712623
0.714569
0.726573
0.738902
0.780753
0.84856
0.956271
1.162609
1.426697
1.556794
1.511049
1.369921
1.226198
1.097399
0.999745
0.932587
0.894304
0.878407
0.889114
0.937454
1.010451
1.09091
1.162609
1.222954
1.25929
1.27908
1.254748
1.182075
1.097723
1.025375
0.950107
0.882301
0.838827
0.810601
0.78562
0.78854
0.816441
0.873216
0.946214
1.035108
1.180129
1.329692
1.402689
1.37057
1.27389
1.139575
0.995527
0.861537
0.727871
0.624702
0.562411
0.537754
0.578957
0.672069
0.783024
0.89106
0.953351
0.994878
1.070795
1.190835
1.280703
1.286867
1.239824
1.128544
0.989363
0.862186
0.77686
0.737928
0.747986
0.802166
0.882301
0.994878
1.09967
1.173965
1.212572
1.243717
1.21387
1.100643
0.943618
0.763883
0.58285
0.428745
0.341149
0.338878
0.400195
0.541647
0.740524
0.907282
1.019211
1.094479
1.13633
1.13114
1.095452
1.022131
0.911499
0.775238
0.59745
0.383649
0.19191
0.08355
0.035859
0.042347
0.269774
0.553976
0.77394
0.88814
0.930316
0.929668
0.907931
0.881976
0.814494
0.698348
0.560464
0.418688
0.299946
0.229869
0.214945
0.228895
0.261663
0.320061
0.391436
0.490712
0.590312
0.65974
0.671096
0.65163
0.6114
0.556247
0.517964
0.482925
0.425176
0.366779
0.322007
0.273342
0.24025
0.269125
0.327522
0.398897
0.513097
0.705161
0.880029
0.95692
0.965031
0.890087
0.760963
0.617564
0.477734
0.345366
0.231491
0.174715
0.176986
0.22046
0.312274
0.427772
0.548136
0.652927
0.723005
0.718463
0.686993
0.638977
0.552354
0.46573
0.417066
0.400195
0.374241
0.348611
0.326874
0.335958
0.392409
0.458917
0.524777
0.588365
0.64287
0.706459
0.766803
0.797299
0.810926
0.774265
0.70581
0.625351
0.544892
0.444967
0.354775
0.298324
0.275938
0.318114
0.441074
0.655198
0.884247
1.058142
1.114918
1.100643
1.06236
0.983848
0.865106
0.724627
0.580255
0.458917
0.377161
0.370347
0.455024
0.591934
0.711325
0.806059
0.88814
0.964382
1.026997
1.069173
1.098372
1.101616
1.051005
0.936805
0.787566
0.635408
0.506933
0.4547
0.471895
0.52575
0.644492
0.776211
0.896251
1.012073
1.138926
1.249233
1.322879
1.331638
1.261886
1.142819
1.012398
0.866728
0.732738
0.641572
0.604587
0.58285
0.595827
0.626324
0.678557
0.798273
0.976386
1.154174
1.319959
1.452651
1.525
1.521106
1.430266
1.292058
1.143468
0.999745
0.878732
0.801517
0.746688
0.72852
0.766478
0.848884
0.972492
1.123029
1.282649
1.419559
1.529217
1.55063
1.476659
1.365379
1.252153
1.14217
1.04257
0.964706
0.918637
0.901766
0.934858
0.998447
1.067227
1.162285
1.273565
1.341047
1.335207
1.261886
1.163583
1.045165
0.90274
0.791784
0.783673
0.857319
1.009802
1.129193
1.180129
1.240473
1.321257
1.409826
1.489961
1.555172
1.584046
1.573016
1.527271
1.440972
1.328718
1.21095
1.114918
1.044192
0.9965
0.984821
0.985794
1.019535
1.073066
1.117189
1.144766
1.155148
1.178507
1.20219
1.230091
1.295951
1.375437
1.43643
1.446487
1.40788
1.348833
1.300493
1.282974
1.292058
1.317039
1.342993
1.383223
1.446487
1.534084
1.643093
1.753724
1.823477
1.831912
1.751453
1.617787
1.460438
1.314768
1.21387
1.162285
1.125624
1.160663
1.294978
1.428643
1.544466
1.679105
1.840996
1.955521
1.98764
1.951952
1.865653
1.739125
1.565229
1.358566
1.15677
1.003962
0.946214
1.03965
1.232362
1.449083
1.666452
1.857542
1.971418
2.026571
2.046362
2.037926
1.98472
1.855271
1.674563
1.482499
1.329692
1.234309
1.187591
1.252153
1.395876
1.560038
1.685593
1.778705
1.865653
1.942543
1.99575
2.009701
1.989262
1.917887
1.786167
1.633035
1.492557
1.390036
1.344291
1.40204
1.468549
1.491259
1.520133
1.563931
1.610974
1.701166
1.823801
1.917238
1.974013
1.983097
1.931188
1.886092
1.805633
1.68462
1.563607
1.457193
1.358242
1.280703
1.230091
1.202839
1.221332
1.30763
1.458816
1.652826
1.800118
1.86176
1.817637
1.689162
1.540897
1.399445
1.265779
1.148334
1.07112
1.031539
1.025375
1.060738
1.114918
1.160338
1.196026
1.233984
1.269023
1.285569
1.316714
1.378357
1.375761
1.278107
1.123678
0.94524
0.76583
0.645141
0.611076
0.64579
0.797299
1.057494
1.299195
1.477957
1.578206
1.610974
1.594753
1.546412
1.447136
1.319959
1.180778
1.041596
0.924801
0.841422
0.798597
0.784971
0.823903
0.906308
0.997149
1.079879
1.148334
1.197972
1.210625
1.21095
1.165854
1.047761
0.939076
0.844018
0.758692
0.699646
0.712623
0.797299
0.864457
0.933561
1.015317
1.085395
1.132437
1.142495
1.121731
1.108754
1.133086
1.180453
1.207381
1.217763
1.164232
1.075337
0.977359
0.918312
0.894629
0.910202
0.971519
1.045814
1.09091
1.104861
1.094803
1.05652
1.000394
0.96795
0.950431
0.994878
1.11362
1.178831
1.159041
1.099345
1.068524
1.068524
1.093505
1.147686
1.220034
1.289787
1.329692
1.330989
1.293031
1.23658
1.178182
1.106807
1.067875
1.03965
1.002016
0.991958
1.016615
1.058791
1.103238
1.183698
1.289462
1.398471
1.495801
1.569122
1.605134
1.592157
1.546412
1.465629
1.355971
1.241771
1.14801
1.092532
1.086368
1.08507
1.082799
1.099021
1.154174
1.226198
1.301466
1.375761
1.439674
1.466602
1.447785
1.399769
1.302764
1.185644
1.069498
0.969248
0.884572
0.832338
0.817739
0.825525
0.881003
0.984172
1.103238
1.232362
1.341696
1.395876
1.385818
1.322554
1.225549
1.079231
0.908579
0.793406
0.809628
0.892358
1.009478
1.119784
1.179155
1.213545
1.245015
1.282649
1.31639
1.335207
1.325474
1.295302
1.276161
1.246962
1.215167
1.206732
1.181102
1.137304
1.062036
0.990661
0.902415
0.824876
0.794055
0.80833
0.853751
0.952378
1.123678
1.264481
1.338776
1.401067
1.397498
1.331314
1.222629
1.102265
0.997798
0.923503
0.878407
0.850506
0.85667
0.899495
0.971844
1.045165
1.103238
1.141846
1.136006
1.101941
1.074688
1.072417
1.086044
1.050032
0.966004
0.870297
0.797299
0.759016
0.750906
0.789837
0.858941
0.934534
1.022455
1.099021
1.156121
1.187591
1.209652
1.188564
1.118811
1.031215
0.93129
0.833636
0.762261
0.728195
0.711325
0.728195
0.794704
0.881327
0.967302
1.066253
1.141521
1.149957
1.115242
1.060413
0.932912
0.779131
0.682126
0.645141
0.639626
0.692184
0.761612
0.79146
0.806384
0.848884
0.920908
1.003962
1.080853
1.132437
1.151579
1.14509
1.106158
1.024726
0.912797
0.809628
0.759665
0.751879
0.74539
0.710676
0.667851
0.670771
0.715867
0.837205
1.041272
1.228145
1.378357
1.470495
1.465629
1.369272
1.225549
1.061711
0.907606
0.7827
0.693481
0.655523
0.655198
0.696077
0.77686
0.869648
0.965679
1.066902
1.163907
1.229767
1.240797
1.180453
1.028295
0.82001
0.598747
0.431989
0.361912
0.40052
0.570197
0.767776
0.908579
1.024077
1.110052
1.185969
1.257668
1.309577
1.331638
1.325799
1.272592
1.165529
1.051978
0.935832
0.816765
0.715218
0.653576
0.633137
0.656496
0.739551
0.851155
0.968924
1.08215
1.174289
1.231713
1.258966
1.248908
1.175911
1.054574
0.916366
0.779131
0.676286
0.616267
0.602965
0.617564
0.63703
0.661038
0.67434
0.696401
0.750906
0.852777
1.020833
1.180129
1.292058
1.317363
1.241771
1.11654
0.982874
0.876461
0.787891
0.704512
0.619835
0.567277
0.559491
0.586743
0.698672
0.873216
1.072742
1.204786
1.269996
1.308604
1.310226
1.23074
1.104212
0.964057
0.830067
0.730467
0.666878
0.640275
0.669149
0.744093
0.862835
1.0111
1.145415
1.231065
1.277458
1.303088
1.250206
1.134708
0.992283
0.843693
0.690886
0.528021
0.411875
0.367428
0.389489
0.5118
0.722031
1.034135
1.298546
1.444865
1.486068
1.461411
1.397822
1.279405
1.13925
0.998123
0.860239
0.744417
0.676286
0.65163
0.658118
0.712947
0.796651
0.892682
0.995203
1.085395
1.14217
1.163258
1.181102
1.151903
1.063658
0.951729
0.827472
0.692184
0.571819
0.507582
0.47741
0.480654
0.588041
0.736955
0.874514
0.996176
1.092208
1.151903
1.19635
1.185969
1.103563
0.975088
0.838178
0.716192
0.643194
0.628271
0.658118
0.706134
0.713921
0.70289
0.687642
0.688615
0.731764
0.855048
1.013695
1.189213
1.321257
1.30763
1.202839
1.058467
0.920259
0.816765
0.750581
0.711649
0.679855
0.695428
0.75123
0.826174
0.92545
1.046138
1.152552
1.211923
1.239824
1.202839
1.097399
0.966004
0.840124
0.727871
0.628595
0.569873
0.566304
0.602316
0.695428
0.844342
1.004936
1.137304
1.232687
1.301791
1.317039
1.278432
1.182075
1.045814
0.908579
0.788864
0.699646
0.656172
0.652927
0.663309
0.698023
0.762585
0.835258
0.916041
0.989687
1.045165
1.083773
1.119136
1.126598
1.070146
0.984496
0.881976
0.803464
0.736631
0.703863
0.685371
0.689588
0.739875
0.81709
0.89982
0.975737
1.03965
1.075337
1.106807
1.144441
1.136979
1.068524
0.999745
0.925774
0.838502
0.764207
0.724302
0.712298
0.733062
0.812548
0.915068
1.006882
1.077608
1.1107
1.101941
1.046787
0.959191
0.851155
0.727222
0.622106
0.561438
0.520235
0.547163
0.643843
0.733711
0.816441
0.925125
1.023428
1.09967
1.181102
1.251179
1.271618
1.235931
1.148659
0.992607
0.817414
0.65455
0.531266
0.451131
0.461513
0.540674
0.627297
0.75707
0.896575
1.024077
1.13925
1.229767
1.283622
1.289462
1.267076
1.202515
1.100643
0.986119
0.872892
0.771345
0.697374
0.656821
0.638328
0.644492
0.696726
0.768425
0.859266
0.955946
1.03381
1.0682
1.07404
1.086368
1.075337
1.036081
0.998771
0.946214
0.869648
0.804437
0.775238
0.769398
0.802815
0.881976
0.977359
1.078582
1.169747
1.200892
1.137304
1.028944
0.897873
0.756745
0.72268
0.81417
0.898847
0.944916
0.947187
0.929992
0.913122
0.90566
0.906308
0.932263
0.981901
1.057494
1.17072
1.282974
1.343318
1.323852
1.230416
1.09383
0.93421
0.787242
0.662985
0.589014
0.60556
0.672393
0.757719
0.88522
1.021157
1.146388
1.281027
1.428968
1.514293
1.541546
1.471468
1.347536
1.214843
1.08215
0.965031
0.880354
0.833636
0.810926
0.830067
0.892358
0.973141
1.061387
1.144441
1.216465
1.248259
1.252477
1.236904
1.17072
1.071444
0.962435
0.863159
0.780105
0.737928
0.7256
0.740524
0.791784
0.861537
0.943294
1.033486
1.121407
1.201866
1.259615
1.276485
1.220683
1.093181
0.918961
0.754799
0.626
0.533861
0.484547
0.509529
0.613996
0.746364
0.876136
1.066578
1.319959
1.520782
1.613245
1.622654
1.582424
1.471468
1.315092
1.139575
0.966977
0.828769
0.738902
0.692832
0.699321
0.759016
0.846613
0.962435
1.050032
1.114594
1.226198
1.37933
1.488014
1.51624
1.45038
1.32223
1.203163
1.101292
0.997798
0.921232
0.885869
0.874514
0.908579
0.983848
1.071444
1.162609
1.25053
1.324176
1.375112
1.379005
1.332612
1.242744
1.146388
1.040948
0.945565
0.872568
0.834609
0.824227
0.846289
0.917664
1.022455
1.120109
1.214843
1.290436
1.331314
1.367326
1.39912
1.359539
1.266428
1.154499
1.035432
0.932263
0.863159
0.827147
0.806059
0.824227
0.868026
0.918637
0.983199
1.067551
1.164556
1.260263
1.333585
1.357917
1.289462
1.181426
1.094154
1.043543
0.993256
0.95692
0.93421
0.935183
0.987416
1.038352
1.042245
1.014344
0.977359
0.943294
0.956595
1.095452
1.243717
1.343318
1.348184
1.251179
1.131464
1.029917
0.980603
0.983523
1.027321
1.100319
1.207057
1.308279
1.384196
1.43351
1.450056
1.42475
1.345589
1.190511
1.015966
0.8398
0.685046
0.610427
0.63411
0.700943
0.78854
0.884572
0.977359
1.083124
1.203812
1.28492
1.309253
1.275187
1.213221
1.135357
1.065929
1.029592
1.052952
1.051654
0.993905
0.918961
0.872568
0.874839
0.912797
0.968924
1.039974
1.154823
1.261237
1.29952
1.295951
1.304386
1.289138
1.21679
1.103563
0.981901
0.85959
0.739551
0.650332
0.606858
0.633461
0.733062
0.911824
1.098048
1.257343
1.366677
1.401716
1.37933
1.310875
1.15677
0.967626
0.794704
0.641248
0.52867
0.56598
0.783024
0.966004
1.068524
1.140224
1.209003
1.287516
1.354997
1.404311
1.424101
1.412097
1.348509
1.239175
1.103563
0.957893
0.820334
0.698997
0.649034
0.644492
0.682126
0.768749
0.880029
1.015642
1.150281
1.252477
1.31347
1.339425
1.332287
1.270645
1.174289
1.052952
0.92837
0.81709
0.722031
0.655847
0.648385
0.716192
0.837853
0.971195
1.103563
1.189862
1.235607
1.253126
1.274538
1.274538
1.208354
1.145739
1.075337
0.978008
0.884896
0.828769
0.815468
0.825525
0.87127
0.930965
0.98839
1.051654
1.099345
1.132762
1.145415
1.156445
1.147037
1.099345
1.02505
0.964706
0.959515
1.030241
1.08215
1.08799
1.082799
1.11362
1.160014
1.18824
1.203163
1.20511
1.19343
1.207381
1.251179
1.273241
1.260912
1.225549
1.210625
1.173316
1.107456
1.066902
1.062036
1.092532
1.152552
1.229767
1.311848
1.367001
1.376086
1.348184
1.296924
1.231713
1.127571
1.050032
1.039974
1.008829
0.946538
0.924801
0.969248
1.015317
1.080528
1.171694
1.27097
1.348833
1.378032
1.373814
1.3391
1.268699
1.186942
1.175587
1.167476
1.090261
1.001691
0.938427
0.948485
0.966004
1.00234
1.105834
1.251179
1.383872
1.483797
1.544466
1.553874
1.529217
1.475686
1.375437
1.247935
1.143144
1.05652
1.014669
1.000718
1.029268
1.062684
1.129842
1.239175
1.355971
1.467251
1.557443
1.623627
1.649906
1.630116
1.547385
1.395227
1.232362
1.094803
1.003314
1.006558
1.089288
1.22198
1.363433
1.502938
1.620707
1.716414
1.810175
1.864031
1.876359
1.854622
1.808553
1.726472
1.605134
1.46206
1.324501
1.197648
1.089612
1.035757
1.027321
1.073715
1.199919
1.372192
1.523702
1.609676
1.64212
1.615516
1.539924
1.439674
1.308928
1.183698
1.127571
1.14217
1.192457
1.231389
1.23366
1.218412
1.256046
1.329367
1.416964
1.530191
1.611299
1.616814
1.551279
1.431239
1.236255
0.981901
0.794055
0.733711
0.755448
0.923828
1.175587
1.389387
1.508778
1.557767
1.585993
1.623627
1.674563
1.717063
1.731663
1.710575
1.661585
1.569771
1.43935
1.296924
1.159041
1.046463
0.967302
0.932263
0.91961
0.9394
1.026348
1.13633
1.25053
1.353051
1.429292
1.467575
1.473091
1.448109
1.374139
1.264481
1.137953
1.012722
0.8969
0.824227
0.803464
0.802166
0.841098
0.914744
1.014344
1.12822
1.249557
1.36473
1.434808
1.461087
1.437728
1.334558
1.212896
1.103887
0.9965
0.907606
0.879056
0.883923
0.896251
0.952702
1.035757
1.123029
1.196675
1.251179
1.269347
1.250206
1.219385
1.222954
1.220683
1.194079
1.146388
1.059765
0.985145
0.993581
1.043543
1.109403
1.21387
1.304711
1.37641
1.430266
1.443567
1.385818
1.295951
1.187266
1.051329
0.944591
0.911175
0.901766
0.905984
0.924477
0.962435
1.007531
1.078582
1.163583
1.23658
1.303413
1.361486
1.394254
1.392632
1.371543
1.32223
1.228469
1.137628
1.043867
0.941996
0.855048
0.809303
0.822281
0.858941
0.945565
1.078582
1.218087
1.33618
1.425399
1.463358
1.446487
1.380952
1.256046
1.097399
0.936481
0.827147
0.790486
0.834933
0.913122
0.973141
1.025699
1.091234
1.160014
1.237878
1.321905
1.397174
1.435457
1.435132
1.402689
1.302115
1.164556
1.02797
0.897224
0.78562
0.701268
0.670771
0.698672
0.759016
0.844991
0.959191
1.117838
1.278107
1.414044
1.48185
1.49937
1.458491
1.355322
1.218087
1.06528
0.898522
0.750581
0.669473
0.630866
0.646114
0.783024
0.924477
1.017913
1.09967
1.195053
1.281676
1.32223
1.338451
1.326123
1.296924
1.250206
1.172342
1.078582
0.976061
0.88814
0.832014
0.823903
0.86835
0.964057
1.105834
1.25053
1.360513
1.411449
1.416964
1.391658
1.304062
1.184995
1.061387
0.942969
0.84272
0.797948
0.796651
0.823903
0.900469
1.0111
1.129517
1.23658
1.314443
1.346887
1.293355
1.197972
1.086044
0.95108
0.844666
0.820983
0.848884
0.864132
0.888789
0.900469
0.909228
0.963733
1.037054
1.106158
1.166827
1.207381
1.220358
1.207057
1.197648
1.163258
1.137304
1.105509
1.062684
0.966004
0.876461
0.815468
0.772643
0.794704
0.920908
1.082799
1.231065
1.334883
1.370895
1.361162
1.325799
1.269347
1.20511
1.164556
1.115891
1.041596
0.939076
0.856022
0.810601
0.790811
0.825525
0.903064
0.987416
1.054249
1.087666
1.126922
1.166178
1.1678
1.187266
1.238526
1.235931
1.17364
1.064307
0.949458
0.862186
0.808979
0.806059
0.882625
1.012398
1.143792
1.261561
1.360837
1.422479
1.437728
1.4108
1.328394
1.21387
1.091883
0.978008
0.881003
0.798273
0.732738
0.692508
0.698348
0.755448
0.84564
0.959191
1.084746
1.196999
1.270321
1.318012
1.321581
1.263508
1.162285
1.037379
0.918961
0.823578
0.770047
0.77686
0.818387
0.878732
0.95692
1.035757
1.103238
1.17656
1.220358
1.201866
1.148334
1.043543
0.917015
0.831689
0.817414
0.807032
0.809628
0.837853
0.889114
0.952053
1.019535
1.092208
1.170071
1.269023
1.368624
1.434483
1.460762
1.431888
1.321905
1.15969
0.981577
0.81709
0.682126
0.622755
0.647736
0.732738
0.852777
0.981577
1.093181
1.216465
1.33618
1.428968
1.459464
1.432861
1.367975
1.240797
1.084421
0.931939
0.78562
0.657469
0.576686
0.552678
0.589988
0.708405
0.879381
1.049058
1.182075
1.262534
1.321905
1.359539
1.351104
1.292058
1.226198
1.152552
1.026673
0.88522
0.758692
0.666553
0.609778
0.617564
0.725924
0.848884
0.959515
1.055547
1.11654
1.178182
1.27389
1.326447
1.275512
1.172018
1.057818
0.935832
0.846289
0.810601
0.806708
0.866403
0.971844
1.078906
1.162285
1.212247
1.239824
1.255072
1.245664
1.221007
1.200244
1.157419
1.096425
1.017588
0.911175
0.826498
0.77978
0.773291
0.815143
0.917988
1.051005
1.169747
1.273241
1.363433
1.422155
1.438376
1.418262
1.350455
1.239824
1.113296
0.984172
0.864781
0.768101
0.716192
0.704512
0.738577
0.82812
0.935832
1.057169
1.179155
1.276485
1.319959
1.318012
1.290111
1.213545
1.105509
0.99131
0.898847
0.81417
0.73436
0.690561
0.700619
0.754474
0.853102
0.949458
0.98839
0.980928
0.95108
0.905335
0.939076
1.093181
1.201541
1.236904
1.174289
1.103238
1.049383
1.007856
1.003962
1.017588
1.040623
1.071769
1.11362
1.155148
1.183698
1.180778
1.152228
1.099021
1.012722
0.906957
0.860564
0.875163
0.911499
0.943943
1.034459
1.08799
1.09675
1.12822
1.18824
1.249557
1.305035
1.354997
1.37641
1.372517
1.343642
1.263832
1.151903
1.025375
0.897549
0.791135
0.720734
0.687642
0.707107
0.7827
0.900793
1.023753
1.134059
1.226522
1.296275
1.332612
1.328718
1.287191
1.202515
1.103238
1.004611
0.916366
0.84272
0.803788
0.80541
0.834285
0.908255
0.999745
1.088639
1.160987
1.204137
1.217763
1.20803
1.167151
1.073715
0.950756
0.816765
0.683748
0.602316
0.644168
0.775563
0.903389
0.986443
1.057818
1.131788
1.211274
1.299195
1.387116
1.420857
1.386792
1.302115
1.174289
1.04841
0.926748
0.827472
0.764856
0.772318
0.816441
0.889438
0.994229
1.086692
1.167151
1.263832
1.361811
1.411449
1.396525
1.350455
1.269672
1.121731
0.964382
0.854399
0.782376
0.73728
0.756097
0.830716
0.896575
0.991634
1.098048
1.199919
1.293355
1.363108
1.40496
1.410151
1.383872
1.314768
1.205434
1.084421
0.965355
0.858617
0.793406
0.775887
0.784971
0.825201
0.902091
1.00234
1.109403
1.202839
1.276485
1.310875
1.314443
1.293031
1.225549
1.133735
1.026348
0.917988
0.824552
0.752528
0.713596
0.709703
0.762585
0.856022
0.952702
1.057494
1.155148
1.206408
1.207057
1.168125
1.082799
0.971519
0.877758
0.823903
0.799246
0.813845
0.845964
0.877434
0.892358
0.942969
1.014344
1.063333
1.106483
1.17364
1.28492
1.397822
1.49061
1.494179
1.393605
1.246637
1.098372
0.97087
0.866728
0.795677
0.742795
0.711325
0.727547
0.785295
0.878407
1.041272
1.236904
1.362784
1.446487
1.482499
1.426697
1.310226
1.177209
1.046787
0.946862
0.883923
0.846937
0.828769
0.859266
0.929668
1.007207
1.102265
1.197324
1.270321
1.310226
1.336505
1.305684
1.209652
1.082475
0.948809
0.828769
0.741822
0.704836
0.699321
0.724951
0.824876
0.958866
1.080528
1.192457
1.290436
1.345264
1.324825
1.249233
1.116865
0.939725
0.755772
0.624053
0.584472
0.623404
0.743119
0.89982
1.032837
1.134059
1.2249
1.312497
1.383223
1.428968
1.446163
1.439674
1.398147
1.29368
1.15969
1.013371
0.868674
0.73436
0.618538
0.533861
0.489414
0.519586
0.589339
0.730467
0.96795
1.255397
1.501316
1.603512
1.601566
1.527595
1.388414
1.235607
1.094803
0.961786
0.837205
0.767452
0.743444
0.733711
0.792433
0.905984
1.051978
1.196675
1.30763
1.371219
1.385818
1.362784
1.293031
1.187591
1.061062
0.920908
0.790162
0.680828
0.616915
0.605885
0.684397
0.827796
0.996176
1.158067
1.306333
1.42183
1.470171
1.457193
1.404635
1.300493
1.176884
1.056196
0.947511
0.859915
0.786593
0.726898
0.6685
0.650656
0.673691
0.739875
0.885545
1.127246
1.333261
1.432212
1.463033
1.437403
1.349482
1.225549
1.08799
0.957244
0.850831
0.778482
0.724951
0.708405
0.755448
0.816765
0.878732
0.958218
1.076959
1.177858
1.243069
1.315417
1.345264
1.318986
1.248908
1.137628
1.020184
0.921881
0.855048
0.782376
0.711974
0.679206
0.675962
0.702241
0.851804
1.135357
1.328394
1.429292
1.483472
1.43935
1.334234
1.206083
1.07404
0.959515
0.885545
0.85148
0.859266
0.918961
1.009153
1.113296
1.216465
1.315741
1.387441
1.395876
1.367975
1.296924
1.167151
1.010775
0.864457
0.752528
0.67434
0.660389
0.717489
0.806708
0.908579
1.008829
1.112971
1.227496
1.343967
1.419884
1.428643
1.391983
1.296924
1.15385
0.990012
0.824552
0.679206
0.581552
0.57409
0.63119
0.747986
0.895278
1.017264
1.108105
1.149957
1.171694
1.180129
1.187266
1.201217
1.208679
1.20219
1.144441
1.012722
0.847262
0.698997
0.590961
0.553651
0.617889
0.741822
0.954
1.191159
1.368948
1.486717
1.54771
1.549656
1.488014
1.392956
1.275187
1.135682
0.994878
0.87419
0.791784
0.744093
0.763234
0.838178
0.912473
0.977683
1.040299
1.098048
1.143468
1.184671
1.233984
1.259939
1.251504
1.203812
1.116216
1.022779
0.955298
0.923828
0.916041
0.943294
1.012073
1.095452
1.180453
1.256046
1.316066
1.340074
1.327745
1.285245
1.19343
1.071444
0.944267
0.816116
0.686668
0.58577
0.535808
0.526075
0.573442
0.706783
0.908255
1.120433
1.324501
1.436754
1.454274
1.429617
1.358242
1.248908
1.143792
1.039001
0.937454
0.842395
0.788864
0.765505
0.775887
0.843369
0.912473
0.978332
1.042245
1.090261
1.121082
1.121082
1.089937
1.024726
0.925125
0.832987
0.77686
0.844666
0.985794
1.067875
1.086692
1.108429
1.1678
1.247286
1.329043
1.401716
1.452327
1.451678
1.378681
1.234633
1.042245
0.847911
0.687317
0.610751
0.646114
0.738253
0.816116
0.886194
1.002989
1.129193
1.25053
1.358891
1.434483
1.47601
1.483148
1.455247
1.381925
1.26221
1.11654
0.95984
0.805735
0.674015
0.60556
0.587717
0.617889
0.718138
0.856995
1.008829
1.149308
1.261561
1.333909
1.372192
1.369272
1.309901
1.209003
1.101941
0.990012
0.892682
0.82812
0.804761
0.808979
0.852777
0.939725
1.041596
1.145739
1.237229
1.299195
1.31055
1.273565
1.186293
1.042894
0.874839
0.688939
0.528346
0.464108
0.46865
0.528346
0.70581
0.952702
1.145415
1.266103
1.3391
1.395227
1.439674
1.447136
1.411449
1.284271
1.067551
0.840773
0.63995
0.495254
0.449833
0.587068
0.787566
0.953351
1.088639
1.184346
1.236904
1.276161
1.297897
1.286218
1.26513
1.235607
1.179804
1.099994
1.038028
0.994554
0.944267
0.904686
0.876785
0.862835
0.872892
0.881327
0.906957
0.947187
0.988714
1.051005
1.1824
1.329692
1.389063
1.326123
1.223278
1.131464
1.040948
0.953675
0.89982
0.870621
0.863808
0.906957
0.978008
1.060738
1.146388
1.221656
1.271294
1.288489
1.280054
1.228469
1.136979
1.030241
0.918637
0.812223
0.726249
0.676286
0.655847
0.669798
0.732413
0.833311
0.958542
1.07404
1.164556
1.219709
1.225874
1.181751
1.073066
0.93421
0.791135
0.661038
0.578308
0.584797
0.64579
0.704836
0.786593
0.918637
1.098372
1.276809
1.415017
1.490934
1.494503
1.454274
1.364082
1.203163
1.004611
0.804112
0.648061
0.532563
0.436207
0.355424
0.337255
0.452429
0.657469
0.882301
1.127571
1.323203
1.452651
1.530515
1.545439
1.497423
1.387116
1.263508
1.150605
1.073391
1.016615
0.981577
0.947187
0.935832
0.959515
1.016291
1.098048
1.181751
1.242744
1.273241
1.289462
1.263832
1.171694
1.063982
0.96795
0.880678
0.82001
0.833636
0.864132
0.885869
0.92837
0.995203
1.073391
1.158392
1.244691
1.327096
1.367001
1.374139
1.3391
1.246313
1.123029
0.979306
0.815468
0.65455
0.543918
0.502716
0.519262
0.649359
0.848235
1.057818
1.235931
1.383547
1.489312
1.527595
1.50456
1.41891
1.278107
1.08799
0.881652
0.723653
0.619186
0.599721
0.628919
0.676611
0.734035
0.80541
0.876136
0.983848
1.175911
1.359539
1.47082
1.542519
1.533759
1.443567
1.321581
1.185644
1.055871
0.950431
0.869648
0.815468
0.821632
0.875163
0.95692
1.060089
1.156121
1.231065
1.269996
1.300817
1.304062
1.228469
1.111998
0.987416
0.876461
0.805086
0.766154
0.744093
0.761936
0.840449
0.937454
1.010451
1.044516
1.057818
1.04549
1.01986
1.037703
1.143792
1.241122
1.252153
1.200892
1.12238
1.045165
0.993905
0.958542
0.935507
0.954324
1.009802
1.083124
1.161312
1.23366
1.27097
1.283622
1.266428
1.192457
1.088315
0.99942
0.91669
0.842071
0.809628
0.785944
0.779456
0.83688
0.929668
1.020508
1.122055
1.23366
1.330016
1.383223
1.400093
1.367001
1.271943
1.154823
1.022131
0.873541
0.725924
0.666553
0.627297
0.57701
0.606534
0.725276
0.852453
0.983848
1.149957
1.309901
1.416315
1.457193
1.456545
1.388414
1.262859
1.121082
0.990985
0.886194
0.81709
0.775238
0.777509
0.825525
0.883923
0.935832
0.980603
1.01986
1.028944
1.061711
1.063333
1.039974
1.042894
1.048085
1.021482
0.986443
0.954
0.911499
0.873216
0.884896
0.939076
1.014669
1.097723
1.182075
1.247935
1.27389
1.277783
1.250206
1.177533
1.079879
0.977035
0.889114
0.823254
0.793731
0.783998
0.79957
0.87127
0.975737
1.092532
1.192782
1.25929
1.288489
1.286867
1.25637
1.1824
1.080853
0.968275
0.855697
0.752528
0.680504
0.647736
0.649683
0.698672
0.797948
0.92253
1.041596
1.138926
1.222305
1.266752
1.282649
1.262859
1.180129
1.071444
0.958218
0.844666
0.75123
0.700619
0.682126
0.697699
0.770047
0.883598
1.009478
1.124327
1.206408
1.250206
1.250206
1.231065
1.196026
1.100967
0.944267
0.786918
0.661038
0.580579
0.559167
0.560464
0.584797
0.659416
0.760314
0.857319
0.938427
1.001691
1.066902
1.170071
1.276161
1.322879
1.333909
1.322879
1.264805
1.166178
1.053925
0.977683
0.938103
0.945889
0.993581
1.058791
1.126598
1.186942
1.222954
1.219061
1.171045
1.082475
0.963733
0.850182
0.741822
0.669149
0.645465
0.659416
0.679531
0.709378
0.803464
0.936481
1.049383
1.140873
1.208679
1.245664
1.242095
1.207705
1.140548
1.029592
0.889438
0.749608
0.617889
0.517964
0.469948
0.447238
0.484872
0.572468
0.655847
0.764532
0.873865
0.979306
1.070471
1.129517
1.157419
1.103563
0.9965
0.875812
0.739551
0.625351
0.544243
0.496227
0.475463
0.488441
0.548136
0.640923
0.754799
0.86835
0.982225
1.071444
1.120758
1.105185
0.989039
0.829094
0.693481
0.580579
0.513746
0.496227
0.524128
0.567926
0.658443
0.763234
0.856022
0.947511
1.029592
1.089288
1.1107
1.07404
0.968275
0.81709
0.656496
0.522181
0.482276
0.549758
0.653576
0.715867
0.749608
0.792109
0.847586
0.905335
0.954324
1.009478
1.039001
1.030566
0.981577
0.856995
0.686668
0.516017
0.375538
0.264907
0.207483
0.247063
0.327522
0.438803
0.596152
0.743768
0.872568
0.962111
1.009153
1.015642
1.002989
0.96276
0.876461
0.771994
0.659092
0.544243
0.432963
0.353477
0.304812
0.287293
0.336607
0.422905
0.541323
0.672718
0.783673
0.85667
0.890411
0.89106
0.860888
0.781402
0.655523
0.56014
0.508555
0.497849
0.517315
0.530292
0.560789
0.626324
0.708081
0.802815
0.902091
0.975412
1.009802
1.014993
1.002016
0.934534
0.86543
0.787891
0.686668
0.600369
0.546514
0.52867
0.528346
0.558842
0.623729
0.701592
0.7827
0.884896
0.970221
0.996825
1.000069
0.983523
0.916366
0.813845
0.705485
0.613671
0.541647
0.513422
0.533861
0.633461
0.789837
0.955946
1.08799
1.168449
1.218736
1.229442
1.186293
1.100643
0.975088
0.818387
0.673691
0.607183
0.600694
0.568251
0.533861
0.537105
0.590312
0.709703
0.911824
1.138926
1.343318
1.492557
1.567825
1.583722
1.556145
1.4533
1.323203
1.190186
1.063658
0.954649
0.880029
0.843369
0.832662
0.85667
0.912473
1.00526
1.108429
1.196675
1.270321
1.352402
1.445189
1.474064
1.410475
1.306982
1.200892
1.103887
1.022131
0.975412
0.949458
0.937454
0.981577
1.068524
1.175911
1.297249
1.405284
1.466278
1.475686
1.444541
1.363433
1.248259
1.147686
1.055871
0.974115
0.934534
0.960813
1.038677
1.149308
1.301466
1.455571
1.585993
1.69046
1.768324
1.789736
1.752426
1.685918
1.562309
1.390036
1.221332
1.090261
0.962435
0.896251
0.933236
1.042245
1.194404
1.376086
1.575287
1.772866
1.909451
1.98472
1.998021
1.981151
1.940921
1.85008
1.732636
1.624276
1.51624
1.404311
1.317363
1.262859
1.232038
1.247935
1.30244
1.392632
1.516889
1.698246
1.864031
1.951952
1.997048
1.966876
1.866302
1.751453
1.620707
1.464007
1.318986
1.214194
1.164232
1.175911
1.249557
1.3537
1.468224
1.571393
1.648284
1.65023
1.564905
1.438052
1.29368
1.170396
1.099994
1.185644
1.336829
1.417937
1.427021
1.411773
1.429617
1.47601
1.534733
1.603188
1.661585
1.699544
1.701491
1.67067
1.599943
1.477633
1.340722
1.209976
1.087017
0.990012
0.947836
0.946538
0.983523
1.074364
1.19343
1.326447
1.455896
1.556145
1.607405
1.615841
1.593779
1.525324
1.420857
1.306657
1.199595
1.09675
1.012073
0.97087
0.960164
0.987416
1.086692
1.217114
1.344291
1.451029
1.528568
1.566851
1.572042
1.541221
1.455247
1.330665
1.173965
1.003638
0.855048
0.762585
0.752852
0.830716
0.981252
1.165854
1.341371
1.443892
1.453949
1.42767
1.394578
1.3537
1.289787
1.23658
1.23658
1.219709
1.161312
1.103238
1.082799
1.085395
1.11654
1.209976
1.333585
1.43643
1.495801
1.535381
1.549332
1.547385
1.525973
1.437079
1.338127
1.252801
1.161312
1.081177
1.024077
0.971844
0.942969
0.962435
1.036406
1.132762
1.235282
1.345913
1.445514
1.502289
1.518511
1.491259
1.407555
1.289138
1.173965
1.069822
0.97963
0.920583
0.90274
0.926423
0.994229
1.077608
1.183373
1.298222
1.392632
1.451678
1.471468
1.457193
1.40496
1.307955
1.184671
1.056845
0.927721
0.827472
0.773291
0.774914
0.830716
0.918637
0.981577
1.029592
1.095128
1.162285
1.244366
1.328394
1.432861
1.49353
1.464007
1.374463
1.249882
1.1253
1.027646
0.975412
0.951404
0.971195
1.046787
1.152876
1.260263
1.341047
1.383223
1.381276
1.349807
1.298546
1.218412
1.124975
1.018237
0.887167
0.74831
0.653252
0.627622
0.655198
0.724951
0.883274
1.096425
1.260912
1.36473
1.406582
1.401716
1.380952
1.300493
1.182075
1.057169
0.92253
0.817414
0.778482
0.781402
0.815143
0.877758
0.986119
1.124002
1.253775
1.359864
1.445514
1.497747
1.506831
1.458167
1.343318
1.190186
1.039001
0.8969
0.750906
0.625026
0.536456
0.485845
0.496551
0.608156
0.818063
1.060738
1.264157
1.420857
1.513645
1.518187
1.488339
1.41372
1.301791
1.16488
1.02505
0.91085
0.841747
0.809303
0.797948
0.832014
0.884247
0.939725
0.997149
1.043867
1.071769
1.074364
1.067875
1.059116
1.013046
0.944267
0.868674
0.806059
0.744742
0.721707
0.731764
0.760314
0.821632
0.881976
0.950107
1.034135
1.099021
1.126598
1.12238
1.076311
0.964057
0.812223
0.65974
0.52283
0.417714
0.366454
0.384298
0.44886
0.540998
0.648061
0.760314
0.866079
0.937778
0.969897
0.974115
0.948809
0.877758
0.747337
0.60264
0.485196
0.384622
0.30611
0.277236
0.348611
0.4401
0.552678
0.657145
0.742795
0.826823
0.891709
0.915068
0.882949
0.809628
0.727871
0.626324
0.523804
0.498822
0.56014
0.652279
0.723653
0.756421
0.756745
0.782051
0.828769
0.902091
0.996176
1.092208
1.152552
1.166503
1.139575
1.05944
0.954324
0.841422
0.746039
0.683424
0.67142
0.69121
0.73436
0.826823
0.952702
1.085719
1.198297
1.288813
1.362459
1.398147
1.392307
1.338451
1.237553
1.13114
1.020508
0.916366
0.844666
0.809303
0.798597
0.831689
0.919935
1.019535
1.141846
1.264157
1.368624
1.444216
1.474388
1.455896
1.384521
1.269347
1.137304
1.007856
0.91669
0.895278
0.927072
1.003638
1.091883
1.190511
1.277458
1.32807
1.384845
1.445838
1.457518
1.422479
1.390036
1.334234
1.223927
1.099021
0.98255
0.895602
0.844666
0.850506
0.941996
1.083773
1.214519
1.324501
1.430266
1.521755
1.587291
1.622978
1.629791
1.588264
1.495476
1.391658
1.27097
1.140873
1.03673
0.957569
0.870297
0.833636
0.89398
1.046463
1.226198
1.406258
1.569771
1.693704
1.748209
1.742369
1.670021
1.55063
1.415666
1.280378
1.175262
1.127571
1.097399
1.065929
1.060738
1.12822
1.249882
1.380952
1.49937
1.598646
1.659314
1.679429
1.644715
1.553225
1.443567
1.326772
1.20803
1.105509
1.033486
0.994229
0.987092
1.018237
1.081502
1.162934
1.254424
1.365379
1.49353
1.590535
1.642768
1.620058
1.530839
1.419235
1.300493
1.187266
1.091559
1.038028
1.014344
1.018562
1.049058
1.106483
1.189862
1.289462
1.380303
1.42767
1.418586
1.375761
1.287516
1.165205
1.060089
1.006882
0.978657
0.92837
0.894953
0.883923
0.910526
0.996825
1.108429
1.194404
1.257343
1.319634
1.341371
1.337478
1.312172
1.224251
1.113945
1.002016
0.878083
0.773616
0.713921
0.677584
0.640599
0.641572
0.686993
0.738577
0.789513
0.952378
1.106158
1.178507
1.211274
1.25929
1.247611
1.186942
1.094479
0.979954
0.87711
0.816765
0.793406
0.78562
0.786918
0.78562
0.79146
0.825201
0.891385
0.991634
1.07112
1.15677
1.191808
1.148659
1.059765
0.963408
0.873216
0.80249
0.780105
0.800868
0.860239
0.955946
1.055871
1.146388
1.223603
1.281027
1.295951
1.269347
1.209328
1.107456
0.988065
0.868026
0.772318
0.700619
0.65455
0.663958
0.693157
0.729169
0.773291
0.842395
0.952053
1.069498
1.185969
1.285893
1.36473
1.390036
1.318661
1.184671
1.038677
0.902091
0.801193
0.746364
0.718463
0.715543
0.774265
0.873865
0.984172
1.089937
1.186617
1.249882
1.277458
1.27097
1.233336
1.181102
1.12238
1.057169
0.973466
0.873865
0.77978
0.694455
0.641572
0.646114
0.694779
0.797948
0.931614
1.084421
1.193106
1.274863
1.29952
1.273565
1.195053
1.087341
0.985145
0.889438
0.809303
0.752852
0.727222
0.761612
0.843044
0.933236
1.002989
1.045814
1.051978
1.010127
0.95692
0.89982
0.803139
0.713272
0.721707
0.776211
0.786269
0.803464
0.872568
0.955622
1.047112
1.125949
1.197324
1.26513
1.313795
1.327096
1.307306
1.265779
1.173316
1.04257
0.897549
0.758368
0.633461
0.540025
0.504987
0.486494
0.514395
0.589988
0.672718
0.761288
0.852777
0.939076
1.014669
1.112323
1.172991
1.161312
1.106483
1.023753
0.939725
0.864457
0.811899
0.777509
0.744093
0.747986
0.768101
0.798273
0.852128
0.932263
1.015642
1.089288
1.171694
1.231389
1.228469
1.158392
1.055871
0.943943
0.846937
0.792109
0.768749
0.775563
0.840124
0.933236
1.036406
1.124002
1.186942
1.201866
1.148983
1.049058
0.923503
0.81709
0.728195
0.702565
0.758043
0.817739
0.87419
0.901442
0.923503
0.976386
1.055547
1.136655
1.20511
1.244691
1.241122
1.234309
1.229442
1.165529
1.059765
0.930316
0.798922
0.689588
0.634759
0.63119
0.644168
0.718463
0.840773
0.966653
1.07404
1.178507
1.262859
1.313146
1.343642
1.315741
1.222954
1.108105
0.991958
0.884896
0.799246
0.745715
0.70581
0.690237
0.735009
0.823903
0.955622
1.100643
1.192133
1.238526
1.243717
1.218087
1.164232
1.094154
1.010451
0.907931
0.80541
0.720734
0.671744
0.650656
0.671744
0.746688
0.851804
0.95984
1.062036
1.159365
1.212572
1.197972
1.141846
1.04841
0.936481
0.829094
0.733062
0.650656
0.593881
0.599396
0.644168
0.744093
0.849857
0.972817
1.086044
1.166827
1.200244
1.17656
1.099021
0.958218
0.792757
0.661687
0.566304
0.511151
0.550083
0.660389
0.763559
0.835582
0.909553
0.994554
1.085395
1.177209
1.256046
1.294978
1.29368
1.249233
1.146388
1.002016
0.859266
0.734035
0.626648
0.549434
0.549434
0.630866
0.732413
0.847911
0.977359
1.089288
1.186617
1.264481
1.294329
1.290111
1.249557
1.156445
1.037054
0.911499
0.786593
0.679531
0.609778
0.590637
0.602316
0.658443
0.733711
0.808979
0.886518
0.960164
1.028619
1.090261
1.169423
1.240473
1.227171
1.128544
0.988065
0.831365
0.700943
0.62016
0.578308
0.612698
0.766154
0.979954
1.151579
1.301142
1.429292
1.496125
1.503587
1.482175
1.415342
1.319959
1.202839
1.075013
0.950107
0.847262
0.75999
0.667202
0.6114
0.6114
0.656172
0.79438
1.029917
1.27908
1.449407
1.518511
1.510725
1.433834
1.32223
1.200892
1.085719
0.970546
0.873541
0.80249
0.765505
0.793082
0.904686
1.092208
1.270645
1.421182
1.517862
1.525324
1.476659
1.391009
1.279729
1.157419
1.046138
0.960489
0.914744
0.904037
0.908579
0.940049
1.006233
1.102914
1.203812
1.283622
1.340398
1.34786
1.301142
1.231065
1.139899
1.023104
0.924152
0.887816
0.882301
0.92253
0.986767
1.03381
1.085719
1.159365
1.246962
1.339749
1.420533
1.477633
1.494179
1.474713
1.413071
1.294653
1.151903
1.018237
0.90274
0.805735
0.761612
0.763883
0.781402
0.840124
0.952378
1.119136
1.307306
1.448109
1.537004
1.570745
1.556794
1.485095
1.372841
1.237229
1.081826
0.927072
0.787891
0.709378
0.713272
0.811574
1.016615
1.245664
1.42183
1.535381
1.602539
1.626871
1.617787
1.585668
1.501316
1.386467
1.255721
1.124327
1.016615
0.951729
0.922206
0.920583
0.962435
1.035757
1.122055
1.208679
1.290111
1.372192
1.423453
1.448434
1.441945
1.382899
1.291084
1.176236
1.061387
0.972817
0.926748
0.909228
0.922206
0.998447
1.113945
1.257668
1.395551
1.486392
1.534733
1.548359
1.547385
1.473739
1.359539
1.253775
1.145415
1.044192
0.997798
1.050681
1.146063
1.241446
1.348184
1.455896
1.543492
1.586317
1.586642
1.540572
1.46206
1.365055
1.252477
1.165529
1.124327
1.103887
1.058467
1.00526
0.986767
1.006882
1.091234
1.229767
1.3962
1.543492
1.642768
1.685593
1.671318
1.615192
1.531488
1.415666
1.281351
1.166827
1.097074
1.050032
1.039001
1.060738
1.103563
1.196026
1.304062
1.4108
1.498721
1.557767
1.5675
1.535706
1.472442
1.349807
1.211923
1.092857
1.013695
0.995203
1.045814
1.126922
1.183373
1.236904
1.32223
1.414368
1.500343
1.578531
1.626871
1.624925
1.59021
1.520133
1.391658
1.251179
1.124975
1.0111
0.909228
0.850506
0.831689
0.837529
0.906957
1.060089
1.260588
1.426372
1.522729
1.581775
1.608379
1.61357
1.573664
1.468549
1.351429
1.23074
1.121731
1.046138
1.007856
1.00234
1.032837
1.111349
1.203163
1.296924
1.380628
1.44227
1.473091
1.47601
1.451029
1.372517
1.273241
1.176236
1.097723
1.038028
0.999096
1.00818
1.049707
1.101941
1.187915
1.2966
1.411449
1.514618
1.591508
1.623951
1.631738
1.607081
1.511049
1.37933
1.234633
1.084746
0.953675
0.866728
0.834285
0.838178
0.917664
1.060089
1.217114
1.371219
1.514618
1.627196
1.697597
1.707655
1.641795
1.515591
1.369597
1.224251
1.088315
0.987741
0.94816
0.911824
0.891709
0.941347
1.023753
1.120109
1.290111
1.475686
1.575935
1.595726
1.553874
1.465629
1.340722
1.200244
1.066902
0.962435
0.907931
0.904686
0.921557
0.963408
1.042894
1.135682
1.24242
1.357268
1.46206
1.524026
1.528893
1.494503
1.398796
1.275187
1.151579
1.006882
0.879705
0.797624
0.762585
0.795677
0.921557
1.07112
1.219385
1.347536
1.429617
1.469522
1.467251
1.445189
1.383872
1.259615
1.115891
0.986443
0.875487
0.797624
0.763883
0.765505
0.801193
0.881976
0.983523
1.082799
1.183373
1.269347
1.310226
1.317039
1.309253
1.242095
1.152876
1.096101
1.055547
1.006233
0.95692
0.934858
0.94524
0.998123
1.092857
1.200568
1.305684
1.398471
1.463682
1.474064
1.445189
1.383547
1.273241
1.136979
1.006558
0.889762
0.790486
0.735009
0.721707
0.741173
0.820334
0.935507
1.052952
1.138926
1.181102
1.172342
1.122055
1.057169
0.99942
1.007207
1.018562
0.996825
0.919286
0.820334
0.765505
0.753177
0.792109
0.867052
0.937129
1.007856
1.083448
1.152876
1.219061
1.284271
1.305359
1.241446
1.153525
1.075662
0.983848
0.872892
0.78562
0.752203
0.761936
0.829094
0.940049
1.046463
1.119136
1.15385
1.133411
1.046138
0.943294
0.853426
0.813521
0.833311
0.897873
0.959515
0.992607
0.995203
0.994229
0.998123
1.038028
1.108754
1.188564
1.253775
1.30763
1.344291
1.345913
1.321905
1.253126
1.144766
1.024077
0.911824
0.813521
0.742795
0.717814
0.726898
0.775563
0.865754
0.96795
1.072742
1.170071
1.258641
1.302764
1.304711
1.268374
1.181102
1.052627
0.914419
0.799895
0.754799
0.737604
0.723653
0.713596
0.741822
0.813521
0.888465
0.955946
1.044192
1.137628
1.203812
1.23074
1.224251
1.129842
0.969897
0.787891
0.622431
0.507906
0.5118
0.62016
0.778482
0.926099
1.063333
1.198946
1.329367
1.437079
1.499694
1.505858
1.474388
1.389387
1.235282
1.052627
0.878732
0.727222
0.613022
0.600045
0.657145
0.738902
0.85148
0.968924
1.093505
1.195053
1.2395
1.224576
1.181751
1.118487
1.00818
0.91669
0.840773
0.738577
0.672069
0.667851
0.779131
0.896251
0.998123
1.099021
1.184346
1.262859
1.332287
1.369597
1.36473
1.331963
1.269996
1.171694
1.051654
0.930965
0.820659
0.729493
0.675638
0.669798
0.699321
0.771994
0.866403
0.976386
1.103563
1.209976
1.254748
1.241771
1.196026
1.138602
1.075986
0.990012
0.881976
0.787891
0.733711
0.729818
0.75123
0.803139
0.90274
1.016615
1.110376
1.177533
1.207381
1.181102
1.128869
1.061062
0.957893
0.877758
0.876461
0.880354
0.826823
0.764207
0.727871
0.719111
0.780753
0.894629
1.015966
1.129842
1.212572
1.271943
1.301142
1.288489
1.238202
1.165529
1.053925
0.927721
0.81417
0.719111
0.662011
0.660389
0.722031
0.825525
0.934858
1.041596
1.135357
1.211599
1.258317
1.26513
1.233984
1.156121
1.041272
0.91669
0.801841
0.721058
0.679531
0.689264
0.707107
0.753501
0.835582
0.927397
1.021157
1.112323
1.190835
1.227171
1.211599
1.149632
1.034783
0.888789
0.743444
0.640923
0.59453
0.555273
0.53159
0.523155
0.565331
0.630542
0.75123
0.939076
1.120109
1.231389
1.276161
1.280703
1.241771
1.149957
1.035108
0.914419
0.786269
0.676286
0.636057
0.670122
0.736955
0.835258
0.937454
1.029917
1.105834
1.13633
1.133086
1.11946
1.126273
1.123678
1.09091
1.029917
0.92545
0.808979
0.720085
0.673691
0.653576
0.669798
0.728844
0.807357
0.887816
0.950431
0.98839
0.987416
0.957569
0.895927
0.797299
0.725276
0.665905
0.607831
0.562087
0.529968
0.547163
0.590312
0.643843
0.706783
0.788215
0.870945
0.936805
0.968599
0.952378
0.904037
0.837853
0.75123
0.646114
0.54035
0.464108
0.406684
0.38008
0.386245
0.412848
0.464433
0.536781
0.621782
0.698672
0.763234
0.806384
0.822605
0.784971
0.685695
0.536132
0.360939
0.202616
0.096527
0.041049
0.018015
0.008606
0.005686
0.13481
0.316492
0.473841
0.589014
0.653252
0.650007
0.577984
0.449509
0.276262
0.12086
0.048511
0.020935
0.009904
0.005038
0.003091
0.001793
0.001469
0.001144
0.001469
0.002118
0.090687
0.241224
0.325576
0.326549
0.254525
0.137406
0.056298
0.022881
0.010553
0.004713
0.003091
0.001793
0.001144
0.00082
0.001469
0.001144
0.00082
0.001469
0.001793
0.001793
0.001793
0.001793
0.002118
0.001793
0.001793
0.001793
0.001144
0.001144
0.00082
0.000495
0.00082
0.00082
0.00082
0.001144
0.001469
0.001793
0.002118
0.001469
0.002118
0.002118
0.001469
0.001469
0.001144
0.00082
0.000495
0.000495
0.000495
0.000495
0.000495
0.00082
0.001144
0.001144
0.001469
0.001469
0.002118
0.001469
0.001469
0.001469
0.001144
0.001144
0.001144
0.00082
0.000495
0.00082
0.00082
0.00082
0.001144
0.00082
0.001469
0.001144
0.001469
0.001469
0.001793
0.002118
0.001144
0.001469
0.000495
0.00082
0.000171
0.000495
0.000171
0.00082
0.000495
0.001144
0.001144
0.001469
0.001793
0.002118
0.001793
0.002118
0.001469
0.001469
0.00082
0.00082
0.000495
0.000495
0.000495
0.000495
0.000495
0.00082
0.010877
0.119886
0.18607
0.20651
0.180555
0.108531
0.046565
0.018988
0.008282
0.00374
0.002118
0.001144
0.00082
0.000495
0.001469
0.140001
0.362237
0.552678
0.684073
0.734035
0.735333
0.676286
0.572468
0.439776
0.300919
0.176013
0.105936
0.133512
0.233762
0.39176
0.568251
0.719436
0.831365
0.92837
1.006558
1.041596
1.039974
1.006233
0.92545
0.831689
0.734035
0.630866
0.531914
0.459566
0.403764
0.37489
0.389813
0.463459
0.57701
0.780429
1.016615
1.263832
1.451354
1.528244
1.507156
1.443243
1.3537
1.246637
1.138926
1.028944
0.959191
0.933561
0.942969
1.036081
1.182724
1.346238
1.48477
1.605134
1.698571
1.746587
1.748533
1.670994
1.561336
1.438052
1.311524
1.19635
1.114269
1.075337
1.064956
1.105509
1.180129
1.311524
1.502614
1.71025
1.864031
1.990235
2.09016
2.096649
2.00743
1.880901
1.743018
1.615192
1.49937
1.421182
1.393605
1.412422
1.494828
1.630116
1.788438
1.968498
2.102488
2.161535
2.177108
2.162184
2.102813
2.011972
1.904261
1.789412
1.674887
1.581451
1.554523
1.584046
1.65023
1.746911
1.857867
1.952925
2.008728
2.036629
2.055121
2.058366
2.05285
2.052201
2.054797
2.034682
1.97888
1.954547
1.969147
2.034682
2.116763
2.203387
2.309801
2.431138
2.549556
2.642992
2.696524
2.700741
2.667974
2.577133
2.419459
2.255945
2.115141
2.012621
1.949681
1.985693
2.094702
2.304934
2.55572
2.736105
2.861335
2.91876
2.940821
2.949581
2.953474
2.940497
2.846412
2.695875
2.530739
2.36171
2.202414
2.092107
2.04993
2.04182
2.06745
2.150829
2.264704
2.39318
2.542094
2.691657
2.779578
2.806831
2.78996
2.71307
2.598545
2.471043
2.351328
2.236479
2.140771
2.085294
2.065828
2.091133
2.152127
2.229666
2.318885
2.398371
2.460013
2.484994
2.462284
2.388313
2.259838
2.12163
1.98472
1.857867
1.772866
1.726147
1.688513
1.688189
1.775137
1.926322
2.086267
2.237452
2.339973
2.391882
2.389286
2.334457
2.231612
2.122279
2.000617
1.863058
1.725499
1.57918
1.4679
1.393605
1.354997
1.401067
1.573016
1.739125
1.891932
2.05577
2.176459
2.229666
2.223177
2.133958
1.990235
1.820882
1.647959
1.494179
1.384845
1.34202
1.361162
1.447785
1.56166
1.690784
1.820233
1.947086
2.042469
2.07848
2.066476
2.018461
1.927944
1.820557
1.711872
1.622005
1.554847
1.517862
1.52208
1.554199
1.629142
1.731987
1.845538
1.959738
2.066152
2.154722
2.193005
2.184245
2.119034
2.013919
1.887066
1.754373
1.629142
1.511698
1.420208
1.349482
1.332936
1.395551
1.52208
1.684945
1.887066
2.049606
2.096649
2.090809
2.074263
2.006457
1.898421
1.768324
1.651853
1.565229
1.524675
1.524351
1.536679
1.577558
1.653475
1.753724
1.856245
1.943192
2.000941
2.021705
2.005159
1.932811
1.806607
1.654772
1.494503
1.348509
1.231713
1.168449
1.15677
1.194728
1.300493
1.436754
1.566527
1.683322
1.770595
1.830939
1.86468
1.843592
1.728418
1.547061
1.357917
1.186942
1.05652
1.034135
1.11946
1.196999
1.254099
1.329367
1.401067
1.464655
1.529542
1.597348
1.641795
1.662234
1.638875
1.564256
1.473415
1.36765
1.250855
1.171045
1.152552
1.19343
1.249233
1.318986
1.407555
1.512671
1.610974
1.686891
1.736529
1.756644
1.742693
1.682674
1.574313
1.449407
1.306982
1.158067
1.018562
0.910526
0.838827
0.835907
0.89982
1.009478
1.177209
1.432861
1.666776
1.799469
1.844241
1.815366
1.730689
1.613894
1.484121
1.360513
1.254748
1.174613
1.131464
1.11654
1.12822
1.17364
1.237229
1.315417
1.405284
1.513969
1.606756
1.659963
1.66775
1.59605
1.444541
1.243069
1.031539
0.854399
0.758043
0.754474
0.858293
1.107132
1.393605
1.599295
1.700193
1.739125
1.736205
1.704086
1.649581
1.570745
1.4679
1.360837
1.24534
1.124651
1.023753
0.971195
0.963733
1.009478
1.093505
1.180778
1.25637
1.313146
1.351429
1.388414
1.422155
1.462384
1.500992
1.519484
1.476984
1.370895
1.266103
1.200892
1.175262
1.162285
1.178507
1.243069
1.330665
1.416639
1.488988
1.536355
1.542195
1.51332
1.424101
1.265779
1.092208
0.931939
0.815468
0.793731
0.909553
1.051978
1.132113
1.194404
1.278432
1.373814
1.462709
1.541546
1.603188
1.62168
1.601241
1.537328
1.42183
1.278756
1.121082
0.959515
0.821632
0.741822
0.736955
0.770047
0.859915
1.008504
1.168774
1.300493
1.394903
1.465629
1.506831
1.520133
1.469846
1.366353
1.249233
1.152552
1.083124
1.040623
1.021482
1.012722
1.012398
1.018237
1.027646
1.055547
1.095128
1.156121
1.235607
1.307306
1.338776
1.331638
1.296275
1.25053
1.186942
1.142819
1.128869
1.132437
1.15093
1.203812
1.279729
1.365704
1.452003
1.522729
1.563931
1.555172
1.495476
1.371868
1.204786
1.037054
0.895278
0.830716
0.858293
0.914744
0.957569
0.999096
1.083124
1.189213
1.305035
1.425075
1.521431
1.573016
1.579504
1.547061
1.456545
1.328718
1.190186
1.064307
0.967302
0.904686
0.891709
0.908904
0.953027
1.028619
1.109727
1.171369
1.219385
1.247286
1.235282
1.202515
1.165205
1.143468
1.122055
1.101616
1.099345
1.105509
1.101616
1.105185
1.118487
1.167151
1.241771
1.318986
1.395227
1.467575
1.501641
1.47601
1.428643
1.362135
1.278756
1.177858
1.079879
0.969248
0.844666
0.740199
0.691859
0.729169
0.868674
1.095777
1.355322
1.55355
1.668399
1.714143
1.691758
1.624276
1.505534
1.368299
1.21679
1.072417
0.972817
0.918961
0.897549
0.889762
0.911499
0.983199
1.064631
1.140224
1.233984
1.334558
1.408204
1.460113
1.521106
1.519809
1.452003
1.345913
1.228145
1.117189
1.045814
1.017264
1.016615
1.066578
1.153201
1.250206
1.343967
1.419235
1.455896
1.452976
1.423777
1.354349
1.24534
1.13114
1.041921
0.955622
0.869323
0.832987
0.846289
0.893656
0.998447
1.124975
1.254748
1.37933
1.480553
1.54771
1.584371
1.586642
1.512022
1.388414
1.248908
1.109727
0.983848
0.890736
0.8398
0.823578
0.864781
0.961462
1.094479
1.219061
1.325799
1.366028
1.297249
1.15969
0.992932
0.820983
0.731115
0.793731
0.900793
1.052627
1.1678
1.208354
1.215492
1.244691
1.303088
1.383223
1.463358
1.525
1.545763
1.524351
1.47893
1.39328
1.257343
1.103563
0.944591
0.793082
0.662985
0.559491
0.485845
0.480654
0.570522
0.700619
0.861212
1.048734
1.207381
1.318986
1.413395
1.464007
1.403338
1.284596
1.154499
1.024402
0.907931
0.829418
0.790486
0.774914
0.801841
0.858941
0.920583
0.984496
1.038677
1.063009
1.061387
1.048085
1.025699
0.95984
0.87127
0.803788
0.735982
0.663958
0.616267
0.591285
0.589014
0.631839
0.686668
0.729818
0.766154
0.797624
0.806708
0.829743
0.86543
0.868999
0.824552
0.746039
0.641897
0.533212
0.431665
0.356397
0.305137
0.291835
0.317465
0.321683
0.281129
0.256472
0.284049
0.312599
0.353153
0.470921
0.585446
0.600369
0.525101
0.402466
0.2688
0.1546
0.084848
0.051431
0.068951
0.124753
0.199372
0.278209
0.337904
0.370347
0.358668
0.322007
0.248037
0.13481
0.055324
0.022557
0.010553
0.005038
0.002766
0.002118
0.001469
0.001144
0.001144
0.001469
0.028721
0.139677
0.212998
0.258094
0.269449
0.209754
0.110153
0.044943
0.018664
0.008282
0.004064
0.002442
0.001469
0.00082
0.00082
0.001144
0.001144
0.001469
0.010553
0.159791
0.318114
0.398573
0.368725
0.27172
0.152005
0.065382
0.027748
0.011851
0.005686
0.003415
0.002442
0.056298
0.175364
0.264583
0.338553
0.388516
0.409279
0.391436
0.328496
0.220136
0.10626
0.043645
0.018339
0.008282
0.048836
0.209105
0.3259
0.446589
0.558193
0.667527
0.767776
0.839476
0.864132
0.838178
0.790486
0.704512
0.587717
0.464108
0.356721
0.279182
0.236357
0.241224
0.262636
0.295079
0.353477
0.426799
0.495902
0.557869
0.638004
0.729169
0.807681
0.834285
0.804437
0.734684
0.640275
0.537754
0.453402
0.415443
0.420959
0.453078
0.53159
0.637679
0.749932
0.863483
0.961462
1.027321
1.026348
0.969573
0.876461
0.750581
0.625351
0.540674
0.502716
0.491036
0.516342
0.5689
0.619835
0.688939
0.780429
0.892033
1.003962
1.087666
1.122704
1.099994
1.03381
0.92837
0.816116
0.712947
0.635084
0.581228
0.567926
0.589014
0.607831
0.639626
0.720734
0.822281
0.939076
1.044841
1.171045
1.286218
1.326123
1.293031
1.186942
1.00526
0.78562
0.585121
0.438478
0.389164
0.438154
0.601018
0.846937
1.053925
1.174613
1.254099
1.31347
1.345589
1.363757
1.412422
1.449407
1.406258
1.295302
1.16488
1.036081
0.940374
0.892033
0.878732
0.89982
0.982874
1.097399
1.212896
1.323852
1.408204
1.443892
1.439674
1.413071
1.345589
1.255072
1.160987
1.063009
0.97087
0.920259
0.914419
0.927397
0.974764
1.069822
1.188564
1.305684
1.408204
1.493205
1.53603
1.543492
1.514618
1.429292
1.312821
1.186293
1.063658
0.957569
0.881003
0.835258
0.833636
0.897549
0.998123
1.120109
1.257668
1.367326
1.448109
1.491259
1.502938
1.47893
1.395876
1.264481
1.123029
0.987416
0.861861
0.81417
0.855373
0.953027
1.106807
1.285569
1.465629
1.629467
1.751453
1.798171
1.791358
1.755022
1.655097
1.525
1.409178
1.311199
1.222305
1.145415
1.10778
1.109727
1.147361
1.207381
1.262534
1.291409
1.305035
1.311524
1.327421
1.366028
1.407231
1.424426
1.422804
1.3962
1.390685
1.371219
1.340398
1.316066
1.311524
1.356295
1.427021
1.503263
1.574962
1.622005
1.637578
1.615516
1.547385
1.425724
1.260263
1.085395
0.936156
0.836556
0.79957
0.843369
0.973466
1.128544
1.278432
1.409502
1.521106
1.617463
1.692406
1.728418
1.719983
1.67586
1.575287
1.42767
1.263183
1.100967
0.954
0.841422
0.784971
0.790486
0.826174
0.893656
1.0111
1.142495
1.319634
1.520782
1.66191
1.716739
1.700517
1.603188
1.467251
1.336829
1.214194
1.108105
1.042245
1.018886
1.025699
1.085395
1.184022
1.287516
1.39036
1.479579
1.534733
1.539924
1.502938
1.422479
1.311524
1.185969
1.071769
1.003638
0.960489
0.926423
0.908255
0.933236
1.009478
1.105185
1.206083
1.318986
1.406582
1.440323
1.427995
1.378357
1.279729
1.18532
1.098696
1.046138
1.054574
1.061387
1.053276
1.050681
1.084421
1.155796
1.242744
1.355971
1.46206
1.525
1.538626
1.529866
1.483472
1.386467
1.280703
1.180453
1.078906
0.992607
0.941347
0.924152
0.928045
0.985145
1.069173
1.14801
1.205434
1.247935
1.27097
1.259615
1.233011
1.218736
1.212247
1.191808
1.143468
1.058142
0.976386
0.940698
0.944591
0.987741
1.082799
1.194404
1.278107
1.341371
1.386143
1.388089
1.351753
1.294004
1.190835
1.079555
0.982874
0.896251
0.822281
0.778807
0.771669
0.793082
0.846613
0.921881
1.00818
1.070471
1.104212
1.124002
1.126922
1.121082
1.096425
1.055547
0.971844
0.867377
0.749608
0.655847
0.615942
0.610102
0.626
0.701917
0.815468
0.93421
1.027321
1.069822
1.054898
0.983523
0.887167
0.756745
0.652603
0.619186
0.621782
0.622106
0.640599
0.70581
0.776211
0.853426
0.957244
1.068524
1.168449
1.250855
1.312497
1.31347
1.271294
1.20511
1.090586
0.957244
0.842395
0.758043
0.685695
0.632813
0.614644
0.636057
0.707107
0.807681
0.91085
1.004287
1.086368
1.13925
1.138926
1.101616
1.027646
0.920259
0.809303
0.721382
0.660714
0.646114
0.703863
0.767776
0.821307
0.897873
0.996825
1.115891
1.238526
1.333909
1.374463
1.36473
1.319959
1.226847
1.11946
1.00526
0.873541
0.749608
0.659416
0.619186
0.621458
0.70289
0.817739
0.917664
0.965679
1.002665
1.064631
1.095777
1.118811
1.198297
1.323528
1.397498
1.36473
1.262859
1.14509
1.042245
0.973141
0.915393
0.879705
0.879705
0.906633
0.953351
1.032512
1.160338
1.280703
1.377383
1.403338
1.32515
1.19343
1.063009
0.936156
0.829094
0.778482
0.770696
0.802815
0.89982
1.007207
1.104212
1.182724
1.218087
1.203488
1.172667
1.159365
1.143144
1.134708
1.144766
1.124975
1.065604
0.987416
0.936156
0.918312
0.944267
1.025375
1.132437
1.248908
1.354673
1.435132
1.474713
1.468224
1.422804
1.326123
1.205434
1.088315
0.989363
0.906957
0.859266
0.862186
0.902091
0.988065
1.100643
1.217763
1.337478
1.445514
1.513969
1.543492
1.548034
1.509751
1.420208
1.313795
1.211274
1.115242
1.018886
0.944916
0.907931
0.906957
0.97379
1.123678
1.34786
1.534408
1.656719
1.719659
1.752102
1.76443
1.725499
1.646662
1.5675
1.480553
1.371868
1.282649
1.247286
1.243393
1.270645
1.330665
1.399445
1.461411
1.48185
1.465629
1.451354
1.42475
1.389387
1.386143
1.424426
1.464655
1.449407
1.403338
1.359215
1.323203
1.298222
1.319634
1.379654
1.458816
1.54479
1.620058
1.658341
1.646337
1.605134
1.535057
1.421182
1.281676
1.164556
1.094479
1.026348
0.992932
1.005909
1.041921
1.099021
1.189862
1.292058
1.39036
1.515267
1.665479
1.772217
1.799145
1.72777
1.589562
1.426697
1.271943
1.138602
1.04257
1.004936
1.0111
1.060089
1.161961
1.293031
1.452976
1.608054
1.722903
1.775137
1.772217
1.723228
1.623951
1.51916
1.41891
1.308928
1.212572
1.162934
1.150281
1.16488
1.228469
1.312821
1.40204
1.484446
1.537977
1.559389
1.551279
1.526297
1.473091
1.372192
1.265779
1.181751
1.106807
1.064307
1.100643
1.174938
1.269996
1.408853
1.53895
1.634658
1.717388
1.791034
1.820233
1.800442
1.753724
1.651853
1.50456
1.346238
1.223927
1.118811
1.052627
1.033486
1.075662
1.188564
1.321905
1.437728
1.544466
1.645039
1.726472
1.751778
1.719334
1.634658
1.485095
1.330341
1.209652
1.11362
1.052952
1.057494
1.147361
1.241122
1.327096
1.409502
1.492557
1.582749
1.654772
1.691433
1.680727
1.652826
1.593779
1.487366
1.37057
1.261561
1.169098
1.086044
1.036406
1.026024
1.054574
1.140224
1.244691
1.347536
1.451678
1.540897
1.595726
1.604161
1.552901
1.441296
1.298222
1.135682
0.978981
0.863808
0.7827
0.781078
0.861212
1.00234
1.187266
1.355971
1.500018
1.610001
1.660937
1.656719
1.6246
1.561336
1.441945
1.300168
1.160987
1.031215
0.928045
0.87711
0.895927
0.964706
1.072093
1.21095
1.359215
1.496125
1.596375
1.652826
1.668723
1.649257
1.573989
1.440647
1.277783
1.123353
0.982874
0.860888
0.781727
0.739875
0.754799
0.86543
1.095777
1.32515
1.486392
1.600268
1.644066
1.640173
1.610325
1.518187
1.379005
1.218412
1.069498
0.954324
0.870297
0.82293
0.810277
0.844342
0.911824
0.997149
1.103238
1.21387
1.318986
1.383223
1.439674
1.476984
1.451354
1.374139
1.254748
1.123029
1.01402
0.952378
0.932587
0.947836
1.013046
1.082799
1.129842
1.146063
1.141846
1.11362
1.059116
1.080528
1.170071
1.25053
1.305359
1.283947
1.195053
1.084746
1.006233
0.967626
0.979306
1.057169
1.178507
1.303737
1.420533
1.512347
1.559714
1.556145
1.497423
1.384196
1.245015
1.092532
0.958866
0.854075
0.788215
0.768425
0.786918
0.855048
0.98547
1.124327
1.249882
1.366677
1.464007
1.518511
1.511049
1.440647
1.307955
1.157419
1.014993
0.898847
0.808979
0.773616
0.777509
0.80541
0.883923
1.010775
1.15969
1.2966
1.403662
1.464007
1.475362
1.449407
1.380952
1.277458
1.158067
1.031215
0.915068
0.824227
0.766803
0.729818
0.741497
0.819036
0.929019
1.05944
1.210625
1.333585
1.394254
1.405933
1.37349
1.282649
1.15677
1.010451
0.861212
0.730467
0.644817
0.632813
0.698672
0.837529
0.990661
1.118811
1.23366
1.33618
1.416639
1.443567
1.438052
1.403987
1.326123
1.224576
1.114594
1.006882
0.92253
0.882949
0.863159
0.856346
0.901766
0.97963
1.064956
1.137628
1.187266
1.194079
1.157419
1.114269
1.05944
1.047761
1.087017
1.092857
1.060413
1.000069
0.958218
0.958542
1.005909
1.087341
1.1678
1.252153
1.339425
1.408853
1.43351
1.419235
1.359215
1.218412
1.034783
0.84272
0.667851
0.556896
0.546514
0.606534
0.682775
0.766478
0.853426
0.967302
1.137304
1.304711
1.437403
1.505858
1.524026
1.48477
1.381925
1.252477
1.113945
0.977359
0.863159
0.778482
0.71976
0.695428
0.733711
0.806708
0.929668
1.084097
1.234633
1.379654
1.458816
1.477633
1.418262
1.299844
1.162934
1.034783
0.924152
0.840449
0.80541
0.806384
0.844991
0.929019
1.035757
1.148983
1.251504
1.330341
1.365055
1.360188
1.320932
1.231389
1.115242
0.984172
0.851155
0.745715
0.668176
0.605236
0.553002
0.531266
0.565006
0.656496
0.807357
1.007207
1.25053
1.431888
1.500343
1.481201
1.40204
1.308604
1.196675
1.063333
0.929019
0.829743
0.763559
0.732413
0.76583
0.849208
0.965679
1.076959
1.17364
1.260263
1.351104
1.4108
1.3962
1.306333
1.176236
1.018562
0.865106
0.739551
0.6685
0.655523
0.716516
0.857644
1.034459
1.183049
1.292058
1.355646
1.37933
1.360513
1.297573
1.174289
1.026673
0.881976
0.768425
0.693806
0.654874
0.673367
0.735982
0.833311
0.951404
1.075986
1.186942
1.270645
1.336829
1.367975
1.354673
1.296275
1.192133
1.073066
0.956271
0.83688
0.723329
0.654874
0.628271
0.654225
0.764532
0.939725
1.09091
1.199919
1.267725
1.284596
1.261237
1.228469
1.168774
1.077608
0.96795
0.854075
0.744417
0.659416
0.622106
0.624702
0.703863
0.843369
0.978008
1.091559
1.187266
1.263508
1.307306
1.308604
1.260912
1.156445
1.047112
0.928045
0.798597
0.70873
0.661687
0.612049
0.572793
0.627946
0.75123
0.900469
1.053925
1.198297
1.318337
1.383547
1.383547
1.343967
1.286218
1.182075
1.049383
0.91669
0.804761
0.747013
0.735982
0.762261
0.847586
0.965355
1.088963
1.208354
1.310875
1.362135
1.355646
1.321905
1.240473
1.124651
1.003314
0.884896
0.788215
0.729818
0.698672
0.697699
0.740848
0.812223
0.89398
0.981901
1.054574
1.099994
1.114918
1.144441
1.168449
1.121407
1.063658
1.020508
0.959515
0.890087
0.852128
0.847586
0.86835
0.924152
0.988065
1.038352
1.075013
1.112647
1.140548
1.148983
1.181751
1.255397
1.27097
1.19635
1.080528
0.965031
0.874514
0.827472
0.808655
0.81709
0.878083
0.96276
1.051329
1.123678
1.166827
1.187591
1.199595
1.210301
1.169423
1.100319
1.026024
0.928045
0.84272
0.79438
0.77686
0.779131
0.816116
0.884247
0.977035
1.090586
1.192457
1.26221
1.309577
1.328394
1.285893
1.172018
1.030241
0.88814
0.765181
0.675313
0.636057
0.641897
0.663309
0.757719
0.905335
1.04549
1.186617
1.301466
1.357268
1.3537
1.316714
1.248259
1.145739
1.029268
0.916366
0.81417
0.733386
0.694455
0.694779
0.738902
0.828769
0.924477
1.013046
1.093181
1.155796
1.201541
1.213545
1.159041
1.046138
0.910202
0.766803
0.642221
0.60264
0.632164
0.665256
0.698672
0.750581
0.819036
0.903713
0.992932
1.07404
1.132762
1.190835
1.231389
1.193755
1.102914
1.004287
0.887491
0.768101
0.66558
0.575064
0.52283
0.512124
0.548785
0.629893
0.769074
0.970221
1.158392
1.278756
1.299844
1.252801
1.163258
1.034783
0.892358
0.75999
0.648385
0.589014
0.581228
0.593881
0.64871
0.76583
0.886518
0.97671
1.048734
1.11362
1.137304
1.133086
1.104536
1.012398
0.888789
0.772318
0.676935
0.590961
0.526399
0.499147
0.498498
0.541972
0.669798
0.809952
0.926099
1.027646
1.105185
1.12822
1.111349
1.055547
0.945889
0.806059
0.649683
0.493307
0.360939
0.268152
0.227922
0.240575
0.341797
0.474814
0.602965
0.738253
0.85667
0.966653
1.058142
1.105185
1.073715
0.973141
0.847262
0.712623
0.582526
0.470597
0.399871
0.357046
0.35737
0.41447
0.520235
0.660714
0.807032
0.944916
1.038028
1.115567
1.161961
1.096425
0.975737
0.844018
0.707432
0.566953
0.447887
0.378458
0.332713
0.352828
0.469948
0.631515
0.81709
0.971519
1.068849
1.061711
1.007531
0.960489
0.87419
0.75707
0.626973
0.51472
0.472219
0.482601
0.494929
0.513422
0.599072
0.747013
0.900144
1.01402
1.086692
1.123353
1.109078
1.052627
0.954973
0.82293
0.682451
0.544892
0.426799
0.351206
0.328171
0.335958
0.405386
0.543269
0.693157
0.824227
0.924477
0.989687
1.023104
1.03089
1.001367
0.903064
0.767127
0.626648
0.504662
0.450482
0.529968
0.631839
0.696726
0.75123
0.829094
0.924477
1.016291
1.093505
1.157419
1.195053
1.190186
1.134059
1.023104
0.888789
0.750257
0.614644
0.504013
0.447887
0.429718
0.455997
0.534834
0.626324
0.730467
0.837529
0.945565
1.030566
1.120109
1.200568
1.216141
1.157743
1.051005
0.917988
0.786269
0.681477
0.608156
0.536132
0.48617
0.50304
0.562735
0.638328
0.79146
1.021806
1.173316
1.244366
1.256695
1.184022
1.091234
1.011749
0.911499
0.788215
0.674015
0.604263
0.588041
0.641897
0.764207
0.935507
1.091559
1.195377
1.241122
1.229442
1.180129
1.098372
0.973466
0.857968
0.752852
0.667202
0.613996
0.62308
0.644492
0.682775
0.781402
0.898198
1.011749
1.11946
1.204786
1.24534
1.248584
1.225874
1.153201
1.031215
0.888789
0.752528
0.632488
0.536132
0.499147
0.521533
0.569548
0.645141
0.744742
0.85148
0.947836
1.018237
1.043867
1.034783
0.993581
0.8969
0.777185
0.64871
0.5118
0.379432
0.264583
0.179257
0.143894
0.18607
0.277236
0.401168
0.589988
0.786918
0.943618
1.062684
1.131788
1.120758
1.01986
0.880029
0.735982
0.60264
0.504338
0.431665
0.378783
0.374565
0.443345
0.526723
0.628595
0.777509
0.911824
0.994554
1.04549
1.072093
1.060089
0.990985
0.858293
0.693157
0.521857
0.37197
0.270423
0.216242
0.22922
0.359966
0.590961
0.840124
1.028944
1.123029
1.148334
1.138602
1.080204
0.958542
0.824227
0.705485
0.615293
0.570197
0.599072
0.647412
0.673042
0.717814
0.783673
0.854399
0.937129
1.020184
1.091234
1.126273
1.127246
1.075013
0.969573
0.84272
0.716192
0.615618
0.545216
0.541323
0.558842
0.576686
0.626
0.696726
0.813197
0.943294
1.047436
1.134059
1.182724
1.180778
1.112971
1.006233
0.888789
0.806384
0.760639
0.736955
0.723005
0.722031
0.767452
0.878732
0.992283
1.080204
1.138602
1.167476
1.156121
1.106158
1.028944
0.917664
0.823254
0.787242
0.763883
0.73728
0.732089
0.742146
0.767127
0.843044
0.94232
1.038677
1.120109
1.177209
1.207057
1.21095
1.214194
1.194404
1.104212
0.987416
0.862186
0.747013
0.67142
0.639301
0.637679
0.697374
0.789189
0.866728
0.932912
1.001367
1.081177
1.135682
1.132762
1.154499
1.155796
1.133735
1.08507
1.013371
0.92837
0.861861
0.829418
0.821956
0.858293
0.955622
1.086044
1.214194
1.315417
1.378357
1.380303
1.321581
1.211599
1.059765
0.907606
0.772967
0.712623
0.728195
0.798597
0.864132
0.891709
0.936156
1.017913
1.111998
1.211274
1.298546
1.350131
1.361162
1.331638
1.238202
1.091883
0.932587
0.789513
0.666229
0.601667
0.591285
0.624377
0.696401
0.839151
1.019211
1.175262
1.300168
1.385494
1.410475
1.386143
1.332612
1.225549
1.098696
0.974764
0.867377
0.769398
0.682775
0.630542
0.604263
0.613022
0.661687
0.746039
0.882301
1.028295
1.166503
1.265454
1.359215
1.426048
1.392307
1.283298
1.148334
1.020508
0.911824
0.838178
0.797299
0.78854
0.831365
0.909877
1.021157
1.121407
1.18824
1.221656
1.191484
1.09675
0.955622
0.803788
0.670771
0.630542
0.74831
0.920259
1.023428
1.044192
1.050356
1.101616
1.176236
1.253775
1.327745
1.387116
1.409502
1.387765
1.322879
1.201541
1.058142
0.915393
0.779456
0.666229
0.579281
0.564358
0.580579
0.666229
0.917664
1.221007
1.428643
1.537653
1.586966
1.581451
1.540248
1.463033
1.342993
1.199595
1.045814
0.899171
0.786593
0.710676
0.66266
0.655523
0.707107
0.793082
0.908904
1.060413
1.183373
1.278107
1.341047
1.356295
1.306333
1.202839
1.08215
0.963733
0.869323
0.827472
0.840773
0.883274
0.938752
1.0111
1.101941
1.209328
1.301466
1.368948
1.398147
1.380952
1.326123
1.225549
1.127895
1.054249
0.974764
0.894304
0.804761
0.719111
0.662011
0.661038
0.721382
0.857319
1.074688
1.286542
1.461411
1.558092
1.562958
1.500343
1.3962
1.282
1.149308
1.015966
0.900793
0.835582
0.803464
0.796651
0.844018
0.941023
1.044516
1.118162
1.192133
1.272267
1.29952
1.281351
1.230091
1.167476
1.09383
1.001367
0.971844
0.987416
0.99942
1.000394
1.003962
1.026673
1.062036
1.124002
1.204137
1.253775
1.311524
1.407555
1.443892
1.37933
1.252153
1.085719
0.915393
0.781727
0.714894
0.718463
0.781402
0.884247
1.006882
1.140548
1.323203
1.500343
1.623303
1.653799
1.608054
1.512671
1.374788
1.21679
1.054249
0.900144
0.780105
0.724302
0.732738
0.794055
0.930965
1.092532
1.240149
1.357917
1.432861
1.455571
1.422155
1.360837
1.257992
1.151903
1.070146
0.986767
0.946538
0.937129
0.93421
0.937129
0.963733
1.034135
1.126273
1.219709
1.306008
1.373814
1.409826
1.419559
1.401391
1.334234
1.244366
1.137628
1.032188
0.945889
0.904037
0.909877
0.95108
1.02505
1.121731
1.212247
1.288489
1.351753
1.420857
1.45038
1.431888
1.370895
1.259939
1.130815
0.997798
0.884896
0.822281
0.810277
0.855048
0.931939
1.049058
1.165205
1.274538
1.369597
1.454598
1.554199
1.612921
1.619085
1.554847
1.447785
1.311848
1.15093
0.995203
0.879705
0.817739
0.800544
0.848235
0.949782
1.032188
1.102265
1.176884
1.258641
1.349482
1.455896
1.554847
1.577882
1.519809
1.403338
1.275187
1.156121
1.051005
0.977035
0.934534
0.952702
1.03673
1.158392
1.282974
1.395551
1.49937
1.539275
1.497747
1.404635
1.282
1.171694
1.10778
1.05944
1.043219
1.067551
1.102265
1.136979
1.210625
1.311848
1.415666
1.508129
1.586317
1.625249
1.615841
1.571069
1.473415
1.342669
1.204461
1.069498
0.952378
0.86251
0.813845
0.797299
0.824552
0.891385
0.966653
1.035757
1.122704
1.22198
1.295302
1.34202
1.374463
1.341371
1.282325
1.196026
1.068849
0.938103
0.859266
0.848884
0.837529
0.836231
0.855373
0.898847
0.985145
1.141846
1.308928
1.393929
1.416315
1.386467
1.314119
1.220358
1.129842
1.07112
1.036081
1.022131
1.017588
1.026348
1.089288
1.181102
1.274538
1.335207
1.342345
1.307306
1.245664
1.171369
1.11946
1.130166
1.121731
1.072417
1.000394
0.928045
0.897549
0.910202
0.974764
1.098048
1.22782
1.330016
1.406258
1.467575
1.493854
1.485419
1.441621
1.335856
1.195053
1.047761
0.907282
0.784647
0.709703
0.699321
0.753177
0.882301
1.037379
1.194079
1.318986
1.399445
1.444216
1.443892
1.423453
1.362135
1.243069
1.104861
0.974764
0.868026
0.787242
0.746039
0.743119
0.770047
0.834285
0.911175
1.007531
1.114918
1.203488
1.260588
1.281027
1.270321
1.192457
1.080204
0.955298
0.83688
0.77394
0.77394
0.799895
0.843369
0.900793
1.000069
1.103238
1.201217
1.314119
1.41372
1.457518
1.461087
1.477633
1.429292
1.292382
1.078582
0.843044
0.653576
0.541972
0.533212
0.634435
0.859266
1.103887
1.269672
1.36473
1.427021
1.456869
1.416964
1.305035
1.155148
1.001691
0.864457
0.760639
0.746364
0.800868
0.864132
0.891709
0.908904
0.972168
1.063009
1.163583
1.258317
1.339425
1.387441
1.392956
1.363757
1.282974
1.176884
1.060738
0.949782
0.855697
0.798273
0.787566
0.812872
0.869648
0.964382
1.073391
1.175911
1.26805
1.341047
1.369597
1.357917
1.312497
1.206083
1.057818
0.901442
0.765505
0.656172
0.608805
0.636057
0.712947
0.825201
0.944267
1.060089
1.171694
1.250855
1.297897
1.310226
1.298222
1.228145
1.097074
0.978332
0.872243
0.760963
0.670122
0.688939
0.757719
0.793731
0.813845
0.844342
0.880029
0.929343
1.025699
1.176884
1.31347
1.395876
1.372192
1.282649
1.135357
0.963733
0.805086
0.706134
0.666229
0.685046
0.80249
1.01694
1.219709
1.374139
1.473739
1.504236
1.471468
1.38225
1.269996
1.130166
0.979306
0.866728
0.828769
0.801841
0.776536
0.785295
0.841422
0.968924
1.094479
1.236255
1.379979
1.465629
1.494503
1.47893
1.439999
1.366028
1.251179
1.111998
0.973141
0.850182
0.760963
0.730791
0.74247
0.806384
0.911824
1.008829
1.100967
1.191484
1.278107
1.323528
1.32807
1.309253
1.236904
1.132437
1.019211
0.910526
0.806708
0.721382
0.660714
0.615942
0.617564
0.657145
0.72852
0.817739
0.937778
1.077933
1.217114
1.358566
1.4679
1.511374
1.448109
1.318661
1.173965
1.053925
0.991958
0.968924
0.965355
1.011424
1.087341
1.161312
1.203488
1.224576
1.220683
1.166827
1.092208
1.065604
1.054574
1.012398
0.977359
0.973141
1.010127
1.048734
1.065929
1.09383
1.161961
1.240473
1.316714
1.388738
1.446812
1.461087
1.434159
1.372841
1.260588
1.125949
0.996825
0.903389
0.847262
0.813197
0.810926
0.840124
0.907606
1.01402
1.14217
1.259939
1.351753
1.411449
1.427021
1.414693
1.370895
1.27389
1.151579
1.03089
0.925125
0.838827
0.785944
0.77102
0.787242
0.849208
0.936156
1.051329
1.174938
1.302764
1.453625
1.521431
1.474713
1.342993
1.161636
0.989039
0.879056
0.857644
0.883274
0.948485
1.027321
1.097074
1.173316
1.259615
1.350131
1.425724
1.46498
1.453949
1.401391
1.325799
1.193106
1.039001
0.898522
0.74247
0.585446
0.485845
0.496876
0.635408
0.892358
1.193755
1.429292
1.581451
1.665479
1.702788
1.707006
1.683971
1.62168
1.490934
1.332612
1.193106
1.078906
0.987092
0.943618
0.946538
0.983523
1.063333
1.158392
1.269347
1.388089
1.490285
1.549981
1.565554
1.542843
1.461411
1.341371
1.199919
1.061711
0.956595
0.889762
0.870297
0.889114
0.957893
1.095777
1.245664
1.382574
1.495476
1.56166
1.551279
1.495152
1.423777
1.311524
1.202515
1.165854
1.180129
1.17948
1.147686
1.121731
1.101292
1.141521
1.272592
1.470171
1.645364
1.778381
1.872142
1.912371
1.898421
1.828019
1.719659
1.590859
1.431563
1.271294
1.112971
1.004611
0.963733
0.967626
1.044516
1.198297
1.411124
1.612596
1.765728
1.876035
1.946112
1.97888
1.949681
1.853325
1.719983
1.583722
1.455571
1.331963
1.236255
1.160987
1.127895
1.143792
1.209976
1.331314
1.456869
1.569771
1.67586
1.781625
1.877657
1.89323
1.837428
1.740098
1.626222
1.520133
1.449083
1.415017
1.402689
1.43643
1.503912
1.582424
1.659314
1.725499
1.771892
1.782923
1.771568
1.729067
1.63044
1.506507
1.383547
1.268374
1.177533
1.138277
1.151579
1.198297
1.294653
1.408204
1.520458
1.625574
1.712197
1.753724
1.755671
1.729392
1.65899
1.546412
1.385818
1.213221
1.059116
0.947836
0.905335
0.946862
1.072417
1.243717
1.410475
1.519484
1.599295
1.660612
1.700517
1.7534
1.792332
1.774812
1.713819
1.638226
1.549656
1.447785
1.384196
1.36765
1.37349
1.421182
1.481201
1.52208
1.516889
1.463033
1.38517
1.286542
1.253775
1.308928
1.430914
1.596699
1.656395
1.657692
1.610325
1.547061
1.485095
1.461087
1.50456
1.572691
1.642768
1.709926
1.769297
1.792007
1.77319
1.725823
1.634982
1.526297
1.40788
1.282325
1.175587
1.098048
1.07112
1.073391
1.114918
1.200244
1.305684
1.410475
1.504885
1.577558
1.606756
1.603512
1.57042
1.488339
1.372517
1.253126
1.143144
1.051329
0.992932
0.975412
0.990661
1.054249
1.146063
1.257668
1.366028
1.441621
1.482824
1.50456
1.522729
1.5104
1.445514
1.34494
1.224251
1.106483
1.009153
0.957569
0.946538
0.965679
1.023104
1.093505
1.148983
1.182724
1.207057
1.219385
1.228469
1.27097
1.308928
1.313795
1.270645
1.229767
1.18824
1.138602
1.055547
0.951729
0.866728
0.843369
0.870945
0.971844
1.157094
1.376086
1.572042
1.71609
1.736529
1.622005
1.445189
1.272267
1.130815
1.050032
1.056845
1.08507
1.099345
1.151903
1.235607
1.322879
1.408529
1.480553
1.528244
1.543168
1.52208
1.457193
1.349807
1.225874
1.106483
1.020508
0.954649
0.921557
0.923828
0.949782
1.021157
1.111998
1.216465
1.323203
1.415991
1.468224
1.479255
1.45914
1.392632
1.2966
1.184346
1.073715
0.975737
0.906957
0.885545
0.894304
0.947836
1.046463
1.160014
1.26513
1.349158
1.414368
1.444541
1.444865
1.404311
1.28784
1.117513
0.927721
0.747013
0.604911
0.564682
0.652279
0.796651
0.980928
1.129193
1.208354
1.247611
1.237553
1.187266
1.129193
1.127895
1.148334
1.157743
1.120758
1.097723
1.087017
1.082475
1.095777
1.112647
1.132762
1.184671
1.25345
1.331963
1.406907
1.458491
1.46498
1.407555
1.30763
1.165854
1.013046
0.882949
0.803464
0.809952
0.855697
0.899495
0.931939
0.983523
1.073066
1.205759
1.331963
1.438052
1.5104
1.527271
1.508129
1.454274
1.345589
1.217763
1.087666
0.963408
0.849208
0.752528
0.689264
0.673042
0.729169
0.859915
1.075013
1.281027
1.426697
1.515916
1.538626
1.52208
1.452003
1.318986
1.163258
1.0111
0.875163
0.771669
0.729169
0.726249
0.76583
0.865754
1.000394
1.13925
1.282325
1.417613
1.521431
1.569447
1.546412
1.442594
1.298546
1.135682
0.968599
0.819685
0.698348
0.608156
0.570522
0.639626
0.747337
0.869648
1.030241
1.200244
1.369597
1.483797
1.55355
1.558741
1.492232
1.397822
1.2966
1.189862
1.074364
0.997149
0.965679
0.958542
0.996825
1.072417
1.144766
1.214843
1.289787
1.353375
1.362459
1.309901
1.213545
1.078906
0.938752
0.839151
0.783349
0.783349
0.866079
0.968924
1.052627
1.144766
1.250206
1.352078
1.448434
1.524026
1.551928
1.543492
1.502938
1.402689
1.260588
1.101941
0.946214
0.821632
0.744417
0.729493
0.793731
0.937129
1.083773
1.20219
1.303088
1.389063
1.451678
1.469197
1.4533
1.400418
1.287516
1.144441
0.996825
0.870945
0.786918
0.767776
0.808006
0.868026
0.952378
1.037054
1.11362
1.186942
1.2395
1.239824
1.194079
1.117838
1.012722
0.87711
0.783024
0.855373
0.984172
1.063333
1.107132
1.127246
1.149308
1.222629
1.321905
1.419235
1.496774
1.534408
1.500667
1.396525
1.258966
1.069498
0.870297
0.73728
0.690886
0.749932
0.85148
0.994878
1.097723
1.165854
1.245988
1.320608
1.377708
1.428643
1.46206
1.446812
1.398796
1.339425
1.2395
1.116216
1.007531
0.937778
0.880678
0.861212
0.890087
0.95108
1.045165
1.151579
1.25637
1.349158
1.421182
1.460113
1.460762
1.432861
1.358891
1.247611
1.123678
1.011749
0.918961
0.850506
0.811899
0.792109
0.81125
0.884572
0.983199
1.088639
1.217763
1.372517
1.465629
1.480228
1.435457
1.328394
1.191808
1.040623
0.889438
0.74831
0.641572
0.582201
0.566629
0.588365
0.681802
0.876785
1.108105
1.294329
1.433834
1.489637
1.47601
1.407231
1.299844
1.163258
1.036081
0.944916
0.91669
0.956271
1.021157
1.070471
1.116865
1.161312
1.218087
1.266428
1.293031
1.293031
1.295626
1.311848
1.295626
1.220683
1.104861
0.97963
0.878083
0.84272
0.886518
0.943294
1.005909
1.115567
1.230091
1.324176
1.392307
1.430266
1.413395
1.353051
1.253775
1.132437
1.011424
0.925125
0.878407
0.870297
0.862186
0.849857
0.850831
0.907282
0.999096
1.093505
1.181426
1.257668
1.309901
1.321257
1.30763
1.269996
1.204786
1.118162
1.029917
0.947836
0.891385
0.870945
0.87127
0.889114
0.94524
1.024402
1.103238
1.142819
1.14509
1.108105
1.032188
0.9394
0.89106
0.914095
0.926099
0.954649
0.98839
1.022779
1.050032
1.065604
1.099994
1.165529
1.245664
1.32223
1.381925
1.424101
1.407231
1.333585
1.235282
1.100967
0.95984
0.858941
0.787566
0.760639
0.764532
0.801517
0.834933
0.891709
0.965679
1.067875
1.183698
1.275512
1.30763
1.29076
1.262534
1.208679
1.118811
1.048734
0.994229
0.952053
0.87127
0.77686
0.71684
0.697374
0.739875
0.898522
1.129517
1.353051
1.505858
1.573664
1.568798
1.524026
1.428643
1.29952
1.165854
1.044516
0.925774
0.814494
0.744742
0.717814
0.73728
0.800219
0.903064
1.032512
1.152876
1.243069
1.293031
1.304711
1.277458
1.181751
1.058142
0.949133
0.850182
0.769074
0.732089
0.770696
0.857319
0.945889
1.023753
1.110376
1.199595
1.27389
1.31931
1.325799
1.304711
1.2395
1.115567
0.967626
0.823903
0.701917
0.622106
0.61724
0.662336
0.751555
0.889114
1.023104
1.131788
1.218412
1.279405
1.30763
1.30244
1.272592
1.18824
1.065604
0.919935
0.770047
0.617564
0.492009
0.444967
0.473841
0.544567
0.657794
0.817739
0.97379
1.080853
1.168774
1.239824
1.258966
1.263183
1.241122
1.182724
1.087666
0.996176
0.884572
0.801193
0.778158
0.78854
0.855373
0.960489
1.05944
1.134059
1.182075
1.184671
1.113945
1.010775
0.907606
0.795028
0.697374
0.682451
0.75999
0.831689
0.859915
0.855048
0.863483
0.918637
0.996176
1.058142
1.121082
1.183373
1.227496
1.232687
1.220358
1.161961
1.090261
1.028295
0.974439
0.907606
0.851804
0.826174
0.821632
0.851804
0.929343
1.032837
1.137953
1.232362
1.303088
1.330665
1.324501
1.277458
1.174613
1.047761
0.913446
0.793082
0.701917
0.654225
0.636057
0.641248
0.701268
0.795353
0.913122
1.034135
1.151579
1.243393
1.275512
1.25345
1.178507
1.061387
0.918961
0.760963
0.603289
0.455024
0.345691
0.358668
0.456971
0.618213
0.854075
1.09091
1.282974
1.413071
1.451029
1.426048
1.364406
1.293031
1.223927
1.129193
1.029592
0.944916
0.858617
0.779131
0.704836
0.64871
0.634435
0.701592
0.858617
1.059765
1.305035
1.473091
1.514293
1.461735
1.341047
1.201541
1.07404
0.957569
0.86543
0.826174
0.827472
0.847911
0.908579
0.996176
1.093181
1.184671
1.257992
1.306657
1.317688
1.303413
1.26513
1.197972
1.093505
0.97087
0.856995
0.768425
0.726573
0.719111
0.74831
0.833636
0.943294
1.057494
1.172667
1.27097
1.327745
1.344291
1.323203
1.244366
1.131788
1.015642
0.904362
0.809628
0.741173
0.71976
0.724627
0.767452
0.832987
0.885545
0.92253
0.938752
0.940374
0.927721
0.951404
1.022455
1.151579
1.251179
1.268699
1.218736
1.131788
1.058142
1.017264
1.007207
1.045165
1.097399
1.145415
1.194728
1.238851
1.269672
1.259615
1.214194
1.159365
1.105509
1.033486
0.949458
0.907282
0.886843
0.91085
0.967626
1.00526
1.055871
1.140224
1.228469
1.309253
1.397822
1.468224
1.488988
1.477957
1.397174
1.271618
1.125624
0.982225
0.860239
0.788864
0.803139
0.874514
0.967302
1.055871
1.146388
1.235931
1.320932
1.392956
1.42183
1.412422
1.366028
1.269672
1.151579
1.04257
0.94816
0.868999
0.826823
0.809952
0.810926
0.854399
0.921232
1.007207
1.121082
1.233336
1.326772
1.371868
1.391983
1.351753
1.247935
1.111025
0.981577
0.871919
0.78854
0.727222
0.679855
0.655847
0.650981
0.720085
0.810277
0.904037
1.086368
1.294978
1.465629
1.571069
1.577882
1.514293
1.389387
1.224576
1.059116
0.925125
0.855697
0.857644
0.914419
1.006558
1.101292
1.184671
1.245664
1.326772
1.424426
1.472442
1.452976
1.3537
1.177209
0.943618
0.736631
0.647412
0.569548
0.52575
0.582526
0.713272
0.838502
1.017913
1.245015
1.462709
1.628493
1.682998
1.691109
1.656395
1.571718
1.437728
1.303088
1.171369
1.069822
1.013046
1.001367
1.045165
1.131464
1.235282
1.331638
1.412422
1.471793
1.485743
1.460762
1.400418
1.282
1.14217
1.003314
0.88522
0.805735
0.767452
0.767127
0.789837
0.861212
0.968275
1.088963
1.207381
1.308604
1.376734
1.39912
1.389387
1.331314
1.22198
1.097723
0.989363
0.904037
0.839476
0.805086
0.822281
0.874514
0.966004
1.073715
1.1824
1.292382
1.380628
1.428643
1.434483
1.407231
1.320932
1.190186
1.051978
0.897224
0.726898
0.577335
0.50304
0.486818
0.577335
0.811899
1.108429
1.320283
1.435781
1.492232
1.505858
1.489637
1.434159
1.308604
1.14509
0.974764
0.820334
0.701917
0.65455
0.687966
0.771669
0.867052
0.986119
1.119784
1.216465
1.27908
1.311199
1.285569
1.190186
1.03089
0.837853
0.678882
0.568251
0.541647
0.690237
0.897549
1.023428
1.074688
1.140873
1.206083
1.270321
1.309901
1.30763
1.243069
1.126922
0.989039
0.841747
0.716192
0.663958
0.713272
0.844666
0.980279
1.060738
1.11654
1.190511
1.264805
1.320608
1.371868
1.413395
1.432212
1.401716
1.330016
1.22782
1.089612
0.948485
0.809628
0.701592
0.660714
0.658443
0.676286
0.706459
0.781078
0.894629
1.016291
1.124975
1.212247
1.272267
1.291084
1.284596
1.238851
1.144441
1.027646
0.908255
0.801193
0.715543
0.670447
0.667527
0.701268
0.783998
0.894629
1.004287
1.101292
1.171369
1.199595
1.189213
1.150281
1.059116
0.927072
0.787242
0.663958
0.569224
0.511475
0.503364
0.526399
0.573117
0.624053
0.644168
0.653901
0.67726
0.725276
0.803139
0.9965
1.204461
1.277783
1.218412
1.08799
0.923503
0.747337
0.612698
0.550083
0.530941
0.594854
0.756421
0.918312
1.076635
1.209003
1.267401
1.199919
1.039325
0.829743
0.62016
0.453078
0.437829
0.60556
0.777509
0.887816
0.911175
0.899171
0.919935
0.965355
1.007531
1.052952
1.101292
1.126598
1.118811
1.08799
1.014344
0.914095
0.81125
0.712298
0.627622
0.560789
0.52575
0.521208
0.556247
0.627297
0.711649
0.802166
0.892358
0.959191
0.976061
0.954973
0.946214
0.908255
0.828769
0.721707
0.610427
0.516017
0.455024
0.428421
0.43718
0.496876
0.579606
0.655523
0.718787
0.770372
0.79438
0.788864
0.774589
0.750257
0.678557
0.569224
0.431989
0.310652
0.246415
0.22922
0.208132
0.160765
0.136757
0.165956
0.298648
0.492983
0.717165
0.921232
1.06528
1.155472
1.134059
1.033161
0.88814
0.741497
0.62308
0.522506
0.426799
0.349908
0.362237
0.461513
0.571819
0.710676
0.902091
1.092208
1.178182
1.178831
1.137304
1.032512
0.898522
0.766478
0.644817
0.546514
0.497525
0.499147
0.515044
0.552029
0.610751
0.692184
0.793082
0.903713
1.012398
1.117189
1.194404
1.172991
1.070471
0.932587
0.793731
0.67726
0.596476
0.552678
0.530617
0.540674
0.601667
0.691535
0.782376
0.870945
0.937129
0.963084
0.957569
0.932587
0.859915
0.769398
0.682775
0.580579
0.479681
0.409928
0.389813
0.378783
0.389164
0.44594
0.525101
0.598098
0.669473
0.721707
0.730142
0.696726
0.647088
0.538079
0.387867
0.220136
0.091336
0.036832
0.016068
0.007309
0.004064
0.002442
0.002442
0.041374
0.269449
0.461837
0.578633
0.660714
0.723978
0.731764
0.658443
0.557544
0.45178
0.327198
0.207807
0.130917
0.082901
0.061164
0.112749
0.211376
0.358019
0.534834
0.690237
0.828445
0.907606
0.914419
0.85148
0.751555
0.634759
0.488441
0.313896
0.160765
0.073493
0.039427
0.166929
0.419012
0.686668
0.909228
1.072417
1.171694
1.204461
1.19343
1.144441
1.049707
0.928694
0.804437
0.695103
0.614644
0.573442
0.561113
0.575388
0.669149
0.790162
0.908579
1.018886
1.143144
1.26513
1.332287
1.358891
1.315741
1.212247
1.086368
0.96795
0.857319
0.764856
0.721707
0.728844
0.791135
0.906957
1.055223
1.214519
1.336829
1.416964
1.447785
1.453625
1.440323
1.379654
1.324825
1.283947
1.230416
1.155148
1.091234
1.049058
1.001367
0.920583
0.867701
0.873216
0.941347
1.086692
1.369272
1.760862
2.052526
2.147585
2.088213
1.944166
1.773839
1.620707
1.515916
1.462709
1.440647
1.447785
1.507156
1.592157
1.676185
1.745938
1.802064
1.836779
1.845538
1.836454
1.801091
1.710899
1.576909
1.440647
1.347211
1.313795
1.342345
1.422479
1.556794
1.710899
1.840996
1.936055
1.986666
2.008079
2.00159
1.962658
1.905558
1.8676
1.838076
1.756968
1.634982
1.526946
1.451029
1.435132
1.484446
1.562958
1.649257
1.755995
1.869546
1.981475
2.111573
2.21604
2.244914
2.226746
2.156669
2.056095
1.936379
1.815691
1.714143
1.652826
1.625898
1.626871
1.674238
1.742369
1.815691
1.88155
1.891283
1.823801
1.705384
1.576584
1.443567
1.346562
1.323852
1.354024
1.332612
1.236255
1.198297
1.283298
1.369272
1.441296
1.513645
1.59021
1.637902
1.641795
1.554523
1.40496
1.221332
1.043543
0.908255
0.868674
0.925774
1.03381
1.149632
1.260912
1.383223
1.510076
1.618112
1.71317
1.802389
1.874088
1.916589
1.914967
1.881226
1.811149
1.697922
1.566527
1.427346
1.293031
1.178182
1.098696
1.047112
1.030241
1.076311
1.168774
1.306982
1.445189
1.565229
1.646986
1.672292
1.65899
1.597348
1.498072
1.387116
1.282649
1.189862
1.120758
1.097723
1.112323
1.16488
1.25345
1.3537
1.45038
1.528568
1.580153
1.597997
1.589886
1.558741
1.500018
1.425075
1.330341
1.226198
1.146063
1.093181
1.074688
1.07112
1.087666
1.129193
1.181751
1.227496
1.252801
1.303737
1.306008
1.232687
1.163907
1.082475
1.012073
0.992607
1.033486
1.043543
1.030566
1.064956
1.160987
1.301466
1.432212
1.549656
1.652177
1.709601
1.713495
1.671967
1.55355
1.353375
1.095777
0.812223
0.615618
0.617889
0.723329
0.835582
0.95984
1.17656
1.471144
1.731014
1.902314
1.974013
1.967849
1.888363
1.736854
1.53895
1.333909
1.143792
0.941671
0.74831
0.641248
0.6685
0.783024
0.994554
1.290111
1.561012
1.778381
1.911722
1.950005
1.926971
1.853
1.766377
1.668399
1.555496
1.446812
1.320932
1.204786
1.110052
1.057818
1.037379
1.049058
1.108429
1.197648
1.295302
1.39036
1.468549
1.511698
1.517862
1.492232
1.415666
1.309577
1.189213
1.06528
0.955946
0.881976
0.859915
0.871919
0.922854
1.013695
1.121731
1.230091
1.324825
1.394254
1.43059
1.439674
1.422155
1.355646
1.267725
1.171694
1.074688
0.988714
0.939076
0.928045
0.942645
1.005909
1.099994
1.219061
1.333909
1.422804
1.477633
1.491583
1.475037
1.416639
1.313795
1.191808
1.070471
0.966653
0.890411
0.858617
0.864781
0.900793
0.973141
1.061711
1.15969
1.240797
1.274863
1.250206
1.164556
1.031863
0.864132
0.72852
0.678233
0.717489
0.765181
0.802166
0.920908
1.044841
1.112323
1.165854
1.209976
1.241771
1.27389
1.283947
1.272916
1.286542
1.274538
1.226522
1.184995
1.126273
1.022779
0.889114
0.796326
0.760314
0.792433
0.92837
1.073715
1.186617
1.289787
1.368299
1.438701
1.429941
1.337478
1.190835
1.015642
0.847262
0.746039
0.725276
0.711649
0.753177
0.81709
0.903389
1.023428
1.14801
1.244366
1.322879
1.38225
1.405284
1.390685
1.348509
1.258317
1.133411
0.996176
0.859266
0.740199
0.655523
0.615293
0.60264
0.638004
0.735333
0.872243
1.009802
1.132113
1.225549
1.280054
1.291733
1.252801
1.146063
1.014344
0.85959
0.674664
0.502391
0.379432
0.333687
0.425176
0.629568
0.823578
0.950431
1.034783
1.107132
1.172667
1.215816
1.216141
1.141846
0.961462
0.759016
0.601018
0.479032
0.425501
0.459242
0.556571
0.634435
0.746688
0.923179
1.115242
1.274863
1.352402
1.354349
1.306982
1.237229
1.153525
1.077284
0.989687
0.872568
0.752528
0.647736
0.58577
0.607183
0.717165
0.853426
0.979306
1.080853
1.156121
1.208354
1.226522
1.217114
1.172342
1.076311
0.959191
0.843369
0.739226
0.638328
0.557869
0.506284
0.494605
0.557869
0.698348
0.833636
0.963408
1.062036
1.116216
1.123353
1.108754
1.075986
1.016291
0.92545
0.810277
0.70289
0.619511
0.578308
0.567277
0.580255
0.624053
0.684397
0.744742
0.812548
0.898522
0.947511
0.908579
0.837205
0.71976
0.607183
0.62016
0.747337
0.83104
0.856346
0.843044
0.83688
0.848884
0.883923
0.92837
0.972492
1.010451
1.081826
1.157094
1.209976
1.233336
1.186293
1.034135
0.805086
0.584472
0.387542
0.248037
0.30611
0.501093
0.71684
0.94232
1.173316
1.339749
1.406582
1.41891
1.394578
1.331963
1.229118
1.09383
0.943943
0.789513
0.649034
0.550731
0.510826
0.513746
0.563709
0.664282
0.783349
0.900469
1.0111
1.10259
1.146388
1.14801
1.124975
1.049383
0.939725
0.824876
0.720734
0.641572
0.590637
0.570846
0.577335
0.632488
0.725924
0.829094
0.933561
1.02505
1.083124
1.093181
1.067875
0.990985
0.820334
0.593881
0.384622
0.212025
0.096852
0.138703
0.375538
0.639626
0.851155
0.978981
1.054898
1.111674
1.147037
1.114918
0.976386
0.776536
0.585121
0.449509
0.383325
0.446589
0.640599
0.813197
0.897549
0.924152
0.944916
0.987741
1.03965
1.096101
1.146712
1.166503
1.153201
1.121731
1.070795
0.95984
0.835258
0.74539
0.683748
0.607183
0.546514
0.523155
0.559167
0.650656
0.779456
0.922854
1.035432
1.115567
1.159365
1.153525
1.121082
1.067227
0.95692
0.812548
0.670771
0.555922
0.467677
0.419985
0.416741
0.44886
0.547487
0.662985
0.777185
0.889762
0.976061
1.02505
1.031539
0.999745
0.915393
0.777509
0.600694
0.430043
0.305461
0.222082
0.217216
0.308705
0.410577
0.50596
0.591285
0.673691
0.758043
0.827147
0.858617
0.843369
0.793406
0.719111
0.630542
0.537105
0.450806
0.358019
0.264258
0.179906
0.14357
0.226949
0.38008
0.545865
0.720734
0.918637
1.061387
1.060413
0.970546
0.84272
0.696401
0.556571
0.446913
0.379432
0.342122
0.313248
0.31195
0.322656
0.357695
0.407008
0.466704
0.531266
0.59161
0.634759
0.649683
0.619186
0.527372
0.385271
0.211376
0.090687
0.037156
0.015744
0.007633
0.004389
0.016393
0.171146
0.318114
0.433612
0.525426
0.593232
0.618538
0.61432
0.577335
0.48033
0.356072
0.225651
0.109829
0.04624
0.019313
0.008606
0.005038
0.003091
0.005362
0.127997
0.259716
0.35153
0.366454
0.292159
0.180231
0.077061
0.030992
0.013148
0.006335
0.00374
0.002118
0.001469
0.001144
0.001144
0.001144
0.003091
0.094905
0.154925
0.201967
0.275613
0.397275
0.563384
0.669473
0.663958
0.599721
0.509204
0.346988
0.151356
0.059218
0.024179
0.010553
0.08063
0.407008
0.759665
0.994229
1.075013
1.087666
1.105834
1.106158
1.030566
0.927072
0.812872
0.692832
0.569224
0.439127
0.322332
0.262961
0.292808
0.397275
0.611725
0.848884
1.037703
1.184022
1.282974
1.305035
1.249882
1.135682
1.005909
0.880678
0.77102
0.69121
0.653901
0.64871
0.673367
0.746364
0.843369
0.949782
1.055547
1.146063
1.195377
1.20511
1.187591
1.122055
1.024402
0.915717
0.80541
0.70873
0.641248
0.616591
0.624053
0.677584
0.767776
0.852777
0.918637
0.967626
0.998123
1.019535
1.068849
1.149308
1.204461
1.201541
1.122055
1.002665
0.873865
0.753501
0.662336
0.616915
0.656496
0.763234
0.953675
1.154499
1.284596
1.361162
1.400418
1.398147
1.324501
1.181426
1.053276
0.968599
0.898522
0.831365
0.811574
0.829094
0.869323
0.977359
1.117189
1.246313
1.383547
1.514942
1.609676
1.622329
1.59605
1.528893
1.444541
1.355322
1.276485
1.19927
1.125624
1.075662
1.048085
1.059116
1.110376
1.201866
1.29368
1.368948
1.442918
1.472766
1.441945
1.38517
1.298546
1.203163
1.094154
0.986119
0.888465
0.835907
0.820334
0.842071
0.932587
1.051978
1.1824
1.309253
1.419235
1.49061
1.511049
1.496125
1.432212
1.324825
1.205759
1.095777
0.998447
0.923503
0.891709
0.891709
0.924801
1.001042
1.096101
1.194404
1.282649
1.345589
1.362459
1.328718
1.232362
1.086044
0.928694
0.82001
0.779456
0.772643
0.820334
0.93421
1.050356
1.140224
1.21095
1.25053
1.287191
1.329692
1.355646
1.348509
1.346562
1.306333
1.184671
1.058791
0.944916
0.798597
0.668825
0.611725
0.620484
0.764856
1.023104
1.252801
1.426372
1.557443
1.656395
1.716739
1.74172
1.717388
1.62168
1.48477
1.342345
1.196999
1.068849
0.978008
0.935832
0.929343
0.956595
1.012073
1.064631
1.125624
1.206732
1.307955
1.383223
1.449732
1.513969
1.502938
1.441945
1.355971
1.262859
1.157743
1.071444
1.049707
1.073391
1.138602
1.234958
1.346238
1.451678
1.507156
1.503263
1.449407
1.386467
1.354997
1.363108
1.400742
1.426048
1.403662
1.365379
1.312821
1.239824
1.171694
1.15093
1.178831
1.277783
1.443567
1.633035
1.808229
1.904585
1.939624
1.894203
1.789412
1.670994
1.538301
1.412097
1.308604
1.245988
1.200568
1.161961
1.141197
1.151903
1.197648
1.280054
1.43059
1.609352
1.741396
1.79882
1.749182
1.646013
1.525973
1.408529
1.313146
1.244042
1.205434
1.19343
1.213221
1.252801
1.300817
1.346887
1.386143
1.428643
1.463033
1.543168
1.615192
1.595401
1.523053
1.39912
1.260263
1.13925
1.073715
1.052303
1.070471
1.141846
1.236904
1.337803
1.43935
1.519484
1.566851
1.575935
1.556794
1.507156
1.433185
1.330989
1.211923
1.089612
0.980279
0.916041
0.883923
0.856346
0.822281
0.812548
0.774914
0.679855
0.677909
0.834933
1.043867
1.297897
1.532137
1.566527
1.445514
1.276485
1.137628
1.044192
0.992283
0.967626
0.980928
1.007531
1.029268
1.027321
0.987092
0.93129
0.911824
0.918961
0.979306
1.044516
1.065929
1.015966
0.889762
0.747337
0.651954
0.615942
0.624377
0.668176
0.729818
0.803139
0.87711
0.932912
0.944916
0.91669
0.868674
0.780105
0.657794
0.527697
0.406684
0.304812
0.236357
0.221109
0.237979
0.283724
0.355099
0.429394
0.486494
0.53743
0.597125
0.626973
0.678557
0.758368
0.75707
0.666553
0.533861
0.3976
0.282102
0.208781
0.17796
0.176662
0.218513
0.281453
0.367428
0.450806
0.467353
0.431016
0.385596
0.317141
0.263609
0.312599
0.38884
0.436856
0.402791
0.320709
0.247388
0.200345
0.194181
0.255499
0.336607
0.41739
0.495578
0.557869
0.587392
0.601667
0.621133
0.583175
0.473841
0.365157
0.272694
0.178284
0.10042
0.057271
0.034561
0.042996
0.101394
0.182826
0.268476
0.367752
0.478059
0.526075
0.497525
0.404737
0.258094
0.129295
0.063111
0.101718
0.222082
0.379432
0.475463
0.512124
0.555273
0.627946
0.722031
0.825525
0.901442
0.931939
0.914095
0.859266
0.762261
0.629568
0.511475
0.393382
0.278209
0.205212
0.179257
0.185421
0.232788
0.321683
0.446913
0.599396
0.72852
0.809628
0.838502
0.825201
0.787242
0.708081
0.60264
0.48617
0.359641
0.225651
0.111451
0.050134
0.022557
0.011526
0.074141
0.246739
0.446264
0.657469
0.873216
1.015642
1.097399
1.10778
1.03381
0.907606
0.752852
0.586743
0.439451
0.385596
0.406035
0.484223
0.598423
0.710027
0.808979
0.898198
0.982874
1.036406
1.030566
0.999096
0.935507
0.841422
0.73728
0.633461
0.543269
0.46573
0.423879
0.421283
0.462162
0.559167
0.683748
0.800868
0.910202
1.015966
1.098372
1.143792
1.141197
1.071444
0.962435
0.831689
0.692832
0.566304
0.482925
0.447562
0.43718
0.461837
0.523155
0.609778
0.720409
0.82001
0.888465
0.95984
1.035757
1.083773
1.051978
0.967302
0.860564
0.760314
0.705161
0.723005
0.775563
0.841422
0.937778
1.032512
1.135682
1.237553
1.289138
1.275836
1.200892
1.104212
0.975412
0.825849
0.726573
0.724951
0.757394
0.774265
0.792757
0.815143
0.840449
0.899495
0.994229
1.107132
1.221332
1.364406
1.481201
1.533759
1.529542
1.444216
1.315741
1.182724
1.060089
0.956595
0.880354
0.834933
0.812548
0.831365
0.868026
0.939076
1.047436
1.159041
1.274538
1.379005
1.451354
1.440647
1.354673
1.2395
1.129842
1.032837
0.95108
0.90274
0.891709
0.908904
0.965355
1.028944
1.090261
1.152876
1.213545
1.280378
1.341047
1.370895
1.342669
1.285245
1.22782
1.140873
1.050356
0.973141
0.926099
0.934534
0.993256
1.088315
1.193755
1.303737
1.406258
1.458167
1.461735
1.476335
1.472766
1.409178
1.32223
1.231713
1.122704
1.040623
0.998771
0.995852
0.992283
0.971195
0.942645
0.959515
1.025375
1.129517
1.286867
1.57334
1.82153
1.884795
1.793305
1.643742
1.482499
1.327096
1.195701
1.117513
1.096425
1.120758
1.218412
1.369272
1.523378
1.657692
1.750804
1.802064
1.815366
1.795251
1.728094
1.624276
1.5104
1.396525
1.295626
1.216465
1.179804
1.181102
1.236255
1.341371
1.4533
1.566527
1.676834
1.752102
1.762484
1.745289
1.706681
1.617787
1.519809
1.446812
1.376086
1.307955
1.254099
1.218736
1.236255
1.368624
1.532462
1.686567
1.814717
1.938975
2.061286
2.109302
2.103462
2.063881
1.988288
1.887066
1.780003
1.66191
1.55647
1.481526
1.432212
1.411773
1.445514
1.490934
1.508129
1.538301
1.605134
1.644715
1.677807
1.812122
1.960063
1.990559
1.920807
1.796549
1.679105
1.597997
1.561985
1.554523
1.586642
1.671967
1.77319
1.879279
1.988613
2.0814
2.129416
2.128767
2.080427
1.976609
1.850405
1.722254
1.613245
1.532462
1.479579
1.457842
1.458491
1.503263
1.588588
1.700842
1.816339
1.922753
2.009376
2.03598
2.007754
1.92178
1.74756
1.51916
1.301466
1.146712
1.061711
1.086368
1.232687
1.419235
1.619734
1.788438
1.918211
2.014567
2.051553
2.027545
1.97304
1.904909
1.793954
1.634982
1.480228
1.335856
1.22782
1.167151
1.150281
1.185644
1.282325
1.432212
1.577233
1.703437
1.816015
1.889661
1.901665
1.857218
1.772541
1.644066
1.514942
1.42475
1.387116
1.380952
1.438052
1.540572
1.588913
1.596699
1.571393
1.547061
1.531813
1.542195
1.641795
1.778705
1.945139
2.07848
2.080752
1.983097
1.841645
1.703113
1.587291
1.514293
1.479255
1.485419
1.53311
1.60189
1.680078
1.76151
1.827695
1.866626
1.874413
1.848783
1.767675
1.648933
1.520458
1.399445
1.298222
1.228794
1.211274
1.225225
1.27389
1.365055
1.477957
1.588913
1.689162
1.77027
1.813744
1.820233
1.789736
1.703762
1.588264
1.461735
1.343318
1.247935
1.193106
1.184995
1.227171
1.309901
1.395227
1.474064
1.537328
1.564256
1.581451
1.600917
1.603837
1.584371
1.534408
1.521431
1.546412
1.525973
1.463358
1.411124
1.363757
1.330016
1.353051
1.39328
1.449407
1.581451
1.742693
1.870195
1.994453
2.078156
2.068748
1.971093
1.838725
1.698246
1.534733
1.356944
1.235931
1.174289
1.177209
1.277458
1.525324
1.795576
1.958116
2.018785
2.009701
1.962334
1.880253
1.790709
1.728743
1.639524
1.532462
1.456869
1.439025
1.460113
1.482175
1.527271
1.599295
1.691758
1.788763
1.864031
1.910425
1.915291
1.875062
1.789412
1.666776
1.531488
1.401067
1.28492
1.192457
1.143792
1.129517
1.15385
1.232038
1.338451
1.446812
1.540572
1.603837
1.626871
1.617787
1.593779
1.532462
1.420533
1.308928
1.21095
1.120109
1.046787
1.028944
1.066578
1.143144
1.218087
1.277783
1.337154
1.39328
1.453625
1.504236
1.514293
1.478282
1.40204
1.292058
1.150281
0.987741
0.819361
0.688939
0.644817
0.659092
0.766478
0.955298
1.165854
1.357593
1.493205
1.572367
1.585993
1.548034
1.461735
1.332612
1.184671
1.039974
0.902091
0.787891
0.721058
0.686019
0.67434
0.705485
0.763234
0.843044
0.91669
0.954
0.960813
0.943943
0.8969
0.815468
0.766478
0.746039
0.710352
0.646763
0.585121
0.546189
0.522506
0.532888
0.592908
0.676611
0.768101
0.877434
0.98547
1.040299
1.030241
0.94816
0.836231
0.737928
0.645141
0.586419
0.542945
0.514071
0.489738
0.470597
0.482276
0.493307
0.485521
0.468001
0.457944
0.461188
0.530941
0.664931
0.802815
0.870621
0.852777
0.766478
0.667202
0.572144
0.503689
0.458917
0.445291
0.488441
0.552029
0.617889
0.682126
0.730791
0.760639
0.769398
0.729169
0.649034
0.562411
0.458917
0.355424
0.25777
0.197425
0.209754
0.255823
0.326549
0.421283
0.526075
0.636381
0.740199
0.825849
0.866728
0.857968
0.801517
0.688615
0.552354
0.408955
0.274316
0.169524
0.156547
0.208132
0.244144
0.30319
0.391111
0.476761
0.561438
0.656496
0.726573
0.769398
0.800868
0.807357
0.76291
0.655523
0.520884
0.406359
0.312599
0.248361
0.207807
0.199372
0.248686
0.324278
0.447887
0.64579
0.821632
0.900793
0.934858
0.936156
0.852128
0.697374
0.504987
0.318438
0.171795
0.084848
0.072844
0.105936
0.144219
0.20067
0.239926
0.295079
0.419012
0.643843
0.911824
1.105185
1.17072
1.09091
0.944591
0.795353
0.673367
0.566953
0.460864
0.335309
0.204239
0.12086
0.118913
0.210727
0.414795
0.639626
0.838502
0.987741
1.033161
0.978008
0.854075
0.716192
0.579606
0.455673
0.36321
0.321358
0.311625
0.338553
0.412848
0.508555
0.60556
0.681802
0.727871
0.738577
0.718138
0.666229
0.576362
0.487143
0.404737
0.321034
0.237331
0.175364
0.151356
0.15752
0.211376
0.309679
0.429394
0.542621
0.641572
0.697699
0.686993
0.628919
0.53451
0.39176
0.248686
0.152005
0.090687
0.061813
0.067977
0.088092
0.088092
0.112424
0.170822
0.284373
0.451131
0.638977
0.805735
0.881003
0.911499
0.872892
0.773291
0.641897
0.506609
0.383974
0.288266
0.24025
0.227273
0.23214
0.28632
0.371321
0.453402
0.538727
0.629244
0.701268
0.75415
0.75707
0.679855
0.565655
0.443993
0.333362
0.237979
0.162711
0.10626
0.067328
0.08647
0.153627
0.247388
0.385271
0.570522
0.712947
0.764856
0.761612
0.712947
0.615942
0.487143
0.356397
0.234086
0.130268
0.064408
0.031316
0.018988
0.067328
0.159791
0.266529
0.367103
0.449184
0.502067
0.515693
0.489414
0.409279
0.297999
0.176337
0.080306
0.032939
0.013473
0.006335
0.003415
0.002118
0.001469
0.060515
0.310003
0.530292
0.674989
0.713596
0.681802
0.602316
0.472868
0.343744
0.246739
0.166929
0.088741
0.036507
0.015095
0.00666
0.00374
0.001793
0.001793
0.001144
0.001469
0.002442
0.152329
0.346988
0.481303
0.47449
0.373267
0.237006
0.10918
0.043645
0.01769
0.007957
0.004389
0.002442
0.001793
0.002118
0.029694
0.108207
0.138379
0.130917
0.093607
0.044294
0.018339
0.008282
0.004389
0.002118
0.001469
0.001144
0.001469
0.00082
0.000495
0.001144
0.008606
0.118264
0.207807
0.241548
0.235384
0.189964
0.097825
0.039427
0.016393
0.007633
0.00374
0.002118
0.001469
0.001144
0.000495
0.001144
0.00082
0.00082
0.001144
0.001793
0.001469
0.001469
0.001469
0.001793
0.001469
0.001144
0.001469
0.001144
0.00082
0.00082
0.00082
0.000171
0.000495
0.00082
0.001144
0.001469
0.002442
0.001793
0.001469
0.002442
0.001469
0.001469
0.001469
0.00082
0.00082
0.000495
0.000171
0.000495
0.00082
0.00082
0.001144
0.010228
0.072844
0.064733
